{
  "AcquisitionMatrixPE": 108,
  "AcquisitionNumber": 1,
  "AcquisitionTime": "18:19:57.270000",
  "BandwidthPerPixelPhaseEncode": 19.73,
  "BaseResolution": 146,
  "BodyPartExamined": "BRAIN",
  "CoilCombinationMethod": "Adaptive Combine",
  "CoilString": "HeadNeck_64",
  "ConversionSoftware": "dcm2niix",
  "ConversionSoftwareVersion": "v1.0.20220720",
  "DerivedVendorReportedEchoSpacing": 0.000938597,
  "DeviceSerialNumber": "67014",
  "DiffusionScheme": "Monopolar",
  "DwellTime": 2.1e-06,
  "EchoTime": 0.09,
  "EchoTrainLength": 48,
  "EffectiveEchoSpacing": 0.000469298,
  "FlipAngle": 90,
  "HeudiconvVersion": "0.12.2",
  "ImageOrientationPatientDICOM": [0.99786, 0.00412124, 0.065256, 0.012366, 0.968106, -0.250234],
  "ImageType": [
    "ORIGINAL",
    "PRIMARY",
    "DIFFUSION",
    "NONE",
    "ND",
    "MFSPLIT"
],
  "ImageTypeText": [
    "ORIGINAL",
    "PRIMARY",
    "DIFFUSION",
    "NONE"
],
  "ImagingFrequency": 123.248,
  "InPlanePhaseEncodingDirectionDICOM": "ROW",
  "InstitutionAddress": "Rue du Bugnon 21,Lausanne,District,CH,1011",
  "InstitutionName": "CHUV",
  "MRAcquisitionType": "2D",
  "MagneticFieldStrength": 3,
  "Manufacturer": "Siemens",
  "ManufacturersModelName": "MAGNETOM Prisma Fit",
  "Modality": "MR",
  "MultibandAccelerationFactor": 3,
  "NonlinearGradientCorrection": false,
  "ParallelReductionFactorInPlane": 2,
  "PartialFourier": 0.875,
  "PatientPosition": "HFS",
  "PercentPhaseFOV": 73.9726,
  "PercentSampling": 100,
  "PhaseEncodingDirection": "i-",
  "PhaseEncodingSteps": 108,
  "PhaseResolution": 1,
  "PixelBandwidth": 1631,
  "ProcedureStepDescription": "RESEARCH Oscar",
  "ProtocolName": "fmap-epi_acq-b0_dir-LR__6dir_monopolar",
  "PulseSequenceDetails": "%SiemensSeq%\\ep2d_diff",
  "ReceiveCoilActiveElements": "HC1-7",
  "ReceiveCoilName": "HeadNeck_64",
  "ReconMatrixPE": 108,
  "RefLinesPE": 40,
  "RepetitionTime": 3.9,
  "SAR": 0.198408,
  "ScanOptions": "PFP\\FS\\PER",
  "ScanningSequence": "GR\\EP",
  "SequenceName": "*ep_b0",
  "SequenceVariant": "SK",
  "SeriesDescription": "fmap-epi_acq-b0_dir-LR__6dir_monopolar",
  "SeriesNumber": 10,
  "ShimSetting": [8247, -5627, -6028, 671, -24, -213, 23, 16],
  "SliceThickness": 1.6,
  "SliceTiming": [0, 5.805, 0.1325, 5.9375, 0.2625, 6.0675, 0.395, 6.2, 0.5275, 6.3325, 0.66, 6.465, 0.79, 6.595, 0.9225, 6.7275, 1.055, 6.86, 1.1875, 6.9925, 1.32, 7.125, 1.45, 7.255, 1.5825, 7.3875, 1.715, 7.52, 1.8475, 7.6525, 1.9775, 7.7825, 2.11, 7.915, 2.2425, 8.0475, 2.375, 8.18, 2.5075, 8.31, 2.6375, 8.4425, 2.77, 8.575, 2.9025, 8.7075, 3.035, 8.84, 3.165, 8.97, 3.2975, 9.1025, 3.43, 9.235, 3.5625, 9.3675, 3.6925, 9.4975, 3.825, 9.63, 3.9575, 9.7625, 4.09, 9.895, 4.2225, 10.0275, 4.3525, 10.1575, 4.485, 10.29, 4.6175, 10.4225, 4.75, 10.555, 4.88, 10.685, 5.0125, 10.8175, 5.145, 10.95, 5.2775, 11.0825, 5.41, 11.2125, 5.54, 11.345, 5.6725],
  "SoftwareVersions": "syngo MR XA30",
  "SpacingBetweenSlices": 1.6,
  "StationName": "LRG10884",
  "TotalReadoutTime": 0.0502149,
  "TxRefAmp": 248.2,
  "VendorReportedEchoSpacing": 0.00093,
  "dcmmeta_affine": [
    [-1.558298110961914, 0.019311239942908287, 0.10270000249147415, 83.5574722290039],
    [-0.006435893010348082, 1.5118330717086792, -0.4009999930858612, -67.060791015625],
    [0.10190638154745102, 0.3907754123210907, 1.5449999570846558, -87.3994369506836],
    [0.0, 0.0, 0.0, 1.0]
],
  "dcmmeta_reorient_transform": [
    [0.0, -1.0, 0.0, 145.0],
    [1.0, 0.0, 0.0, 0.0],
    [0.0, 0.0, -1.0, 86.0],
    [0.0, 0.0, 0.0, 1.0]
],
  "dcmmeta_shape": [108, 146, 87, 3],
  "dcmmeta_slice_dim": 2,
  "dcmmeta_version": 0.6,
  "global": {
    "const": {
      "AcquisitionMatrix": [0, 146, 108, 0],
      "AngioFlag": "N",
      "BeatRejectionFlag": "N",
      "BitsAllocated": 16,
      "BitsStored": 12,
      "BodyPartExamined": "BRAIN",
      "BurnedInAnnotation": "NO",
      "CardiacNumberOfImages": 1,
      "Columns": 108,
      "ConfidentialityCode": "N",
      "ContentQualification": "PRODUCT",
      "EchoTime": 90.0,
      "EchoTrainLength": 48,
      "FlipAngle": 90.0,
      "HighBit": 11,
      "ImageOrientationPatient": [0.99786, 0.00412124, 0.065256, 0.012366, 0.968106, -0.250234],
      "ImageType": [
        "ORIGINAL",
        "PRIMARY",
        "DIFFUSION",
        "NONE",
        "ND",
        "MFSPLIT"
],
      "ImagedNucleus": "1H",
      "ImagingFrequency": 123.24814,
      "InPlanePhaseEncodingDirection": "ROW",
      "LargestImagePixelValue": 4095,
      "LossyImageCompression": "00",
      "MRAcquisitionType": "2D",
      "MagneticFieldStrength": 3.0,
      "Manufacturer": "Siemens Healthineers",
      "ManufacturerModelName": "MAGNETOM Prisma Fit",
      "ModalitiesInStudy": [
        "MR",
        "SR"
],
      "Modality": "MR",
      "NumberOfAverages": 1.0,
      "NumberOfPhaseEncodingSteps": 108,
      "NumberOfStudyRelatedInstances": 19630,
      "NumberOfTemporalPositions": 3,
      "PercentPhaseFieldOfView": 73.9726,
      "PercentSampling": 100.0,
      "PerformedProcedureStepStartTime": "173557.800000",
      "PhotometricInterpretation": "MONOCHROME2",
      "PixelBandwidth": 1631.0,
      "PixelRepresentation": 0,
      "PixelSpacing": [1.56164, 1.56164],
      "PresentationLUTShape": "IDENTITY",
      "ProtocolName": "fmap-epi_acq-b0_dir-LR__6dir_monopolar",
      "ReceiveCoilName": "HeadNeck_64",
      "RepetitionTime": 3900.0,
      "RescaleIntercept": 0.0,
      "RescaleSlope": 1.0,
      "Rows": 146,
      "SAR": 0.19840765511816,
      "SamplesPerPixel": 1,
      "ScanOptions": [
        "PFP",
        "FS",
        "PER"
],
      "ScanningSequence": [
        "GR",
        "EP"
],
      "SequenceName": "*ep_b0",
      "SequenceVariant": "SK",
      "SeriesDescription": "fmap-epi_acq-b0_dir-LR__6dir_monopolar",
      "SeriesNumber": 10,
      "SeriesTime": "181952",
      "SliceThickness": 1.6,
      "SmallestImagePixelValue": 0,
      "SoftwareVersions": "syngo MR XA30",
      "SpacingBetweenSlices": 1.6,
      "SpecificCharacterSet": "ISO_IR 100",
      "StudyID": "30c4fcde-29cb-48",
      "StudyTime": "173557",
      "TransmitCoilName": "Body"
    },
    "slices": {
      "AcquisitionTime": ["181957.270000", "181959.277500", "181957.405000", "181959.412500", "181957.537500", "181959.545000", "181957.672500", "181959.680000", "181957.805000", "181959.812500", "181957.940000", "181959.947500", "181958.072500", "182000.080000", "181958.207500", "182000.215000", "181958.340000", "182000.347500", "181958.475000", "182000.482500", "181958.607500", "182000.615000", "181958.742500", "182000.750000", "181958.875000", "182000.882500", "181959.010000", "182001.017500", "181959.142500", "181957.270000", "181959.277500", "181957.405000", "181959.412500", "181957.537500", "181959.545000", "181957.672500", "181959.680000", "181957.805000", "181959.812500", "181957.940000", "181959.947500", "181958.072500", "182000.080000", "181958.207500", "182000.215000", "181958.340000", "182000.347500", "181958.475000", "182000.482500", "181958.607500", "182000.615000", "181958.742500", "182000.750000", "181958.875000", "182000.882500", "181959.010000", "182001.017500", "181959.142500", "181957.270000", "181959.277500", "181957.405000", "181959.412500", "181957.537500", "181959.545000", "181957.672500", "181959.680000", "181957.805000", "181959.812500", "181957.940000", "181959.947500", "181958.072500", "182000.080000", "181958.207500", "182000.215000", "181958.340000", "182000.347500", "181958.475000", "182000.482500", "181958.607500", "182000.615000", "181958.742500", "182000.750000", "181958.875000", "182000.882500", "181959.010000", "182001.017500", "181959.142500", "182001.170000", "182003.177500", "182001.305000", "182003.312500", "182001.437500", "182003.445000", "182001.572500", "182003.580000", "182001.705000", "182003.712500", "182001.840000", "182003.847500", "182001.972500", "182003.980000", "182002.107500", "182004.115000", "182002.240000", "182004.247500", "182002.375000", "182004.382500", "182002.507500", "182004.515000", "182002.642500", "182004.650000", "182002.775000", "182004.782500", "182002.910000", "182004.917500", "182003.042500", "182001.170000", "182003.177500", "182001.305000", "182003.312500", "182001.437500", "182003.445000", "182001.572500", "182003.580000", "182001.705000", "182003.712500", "182001.840000", "182003.847500", "182001.972500", "182003.980000", "182002.107500", "182004.115000", "182002.240000", "182004.247500", "182002.375000", "182004.382500", "182002.507500", "182004.515000", "182002.642500", "182004.650000", "182002.775000", "182004.782500", "182002.910000", "182004.917500", "182003.042500", "182001.170000", "182003.177500", "182001.305000", "182003.312500", "182001.437500", "182003.445000", "182001.572500", "182003.580000", "182001.705000", "182003.712500", "182001.840000", "182003.847500", "182001.972500", "182003.980000", "182002.107500", "182004.115000", "182002.240000", "182004.247500", "182002.375000", "182004.382500", "182002.507500", "182004.515000", "182002.642500", "182004.650000", "182002.775000", "182004.782500", "182002.910000", "182004.917500", "182003.042500", "182005.070000", "182007.077500", "182005.205000", "182007.212500", "182005.337500", "182007.345000", "182005.472500", "182007.480000", "182005.605000", "182007.612500", "182005.740000", "182007.747500", "182005.872500", "182007.880000", "182006.007500", "182008.015000", "182006.140000", "182008.147500", "182006.275000", "182008.282500", "182006.407500", "182008.415000", "182006.542500", "182008.550000", "182006.675000", "182008.682500", "182006.810000", "182008.817500", "182006.942500", "182005.070000", "182007.077500", "182005.205000", "182007.212500", "182005.337500", "182007.345000", "182005.472500", "182007.480000", "182005.605000", "182007.612500", "182005.740000", "182007.747500", "182005.872500", "182007.880000", "182006.007500", "182008.015000", "182006.140000", "182008.147500", "182006.275000", "182008.282500", "182006.407500", "182008.415000", "182006.542500", "182008.550000", "182006.675000", "182008.682500", "182006.810000", "182008.817500", "182006.942500", "182005.070000", "182007.077500", "182005.205000", "182007.212500", "182005.337500", "182007.345000", "182005.472500", "182007.480000", "182005.605000", "182007.612500", "182005.740000", "182007.747500", "182005.872500", "182007.880000", "182006.007500", "182008.015000", "182006.140000", "182008.147500", "182006.275000", "182008.282500", "182006.407500", "182008.415000", "182006.542500", "182008.550000", "182006.675000", "182008.682500", "182006.810000", "182008.817500", "182006.942500"],
      "ConversionSourceAttributesSequence": [
        [
          {
            "ReferencedFrameNumber": 1,
            "ReferencedSOPClassUID": "1.2.840.10008.5.1.4.1.1.4.1",
            "ReferencedSOPInstanceUID": "1.3.12.2.1107.5.2.43.67014.2023071418200259886708377"}
],
        [
          {
            "ReferencedFrameNumber": 2,
            "ReferencedSOPClassUID": "1.2.840.10008.5.1.4.1.1.4.1",
            "ReferencedSOPInstanceUID": "1.3.12.2.1107.5.2.43.67014.2023071418200259886708377"}
],
        [
          {
            "ReferencedFrameNumber": 3,
            "ReferencedSOPClassUID": "1.2.840.10008.5.1.4.1.1.4.1",
            "ReferencedSOPInstanceUID": "1.3.12.2.1107.5.2.43.67014.2023071418200259886708377"}
],
        [
          {
            "ReferencedFrameNumber": 4,
            "ReferencedSOPClassUID": "1.2.840.10008.5.1.4.1.1.4.1",
            "ReferencedSOPInstanceUID": "1.3.12.2.1107.5.2.43.67014.2023071418200259886708377"}
],
        [
          {
            "ReferencedFrameNumber": 5,
            "ReferencedSOPClassUID": "1.2.840.10008.5.1.4.1.1.4.1",
            "ReferencedSOPInstanceUID": "1.3.12.2.1107.5.2.43.67014.2023071418200259886708377"}
],
        [
          {
            "ReferencedFrameNumber": 6,
            "ReferencedSOPClassUID": "1.2.840.10008.5.1.4.1.1.4.1",
            "ReferencedSOPInstanceUID": "1.3.12.2.1107.5.2.43.67014.2023071418200259886708377"}
],
        [
          {
            "ReferencedFrameNumber": 7,
            "ReferencedSOPClassUID": "1.2.840.10008.5.1.4.1.1.4.1",
            "ReferencedSOPInstanceUID": "1.3.12.2.1107.5.2.43.67014.2023071418200259886708377"}
],
        [
          {
            "ReferencedFrameNumber": 8,
            "ReferencedSOPClassUID": "1.2.840.10008.5.1.4.1.1.4.1",
            "ReferencedSOPInstanceUID": "1.3.12.2.1107.5.2.43.67014.2023071418200259886708377"}
],
        [
          {
            "ReferencedFrameNumber": 9,
            "ReferencedSOPClassUID": "1.2.840.10008.5.1.4.1.1.4.1",
            "ReferencedSOPInstanceUID": "1.3.12.2.1107.5.2.43.67014.2023071418200259886708377"}
],
        [
          {
            "ReferencedFrameNumber": 10,
            "ReferencedSOPClassUID": "1.2.840.10008.5.1.4.1.1.4.1",
            "ReferencedSOPInstanceUID": "1.3.12.2.1107.5.2.43.67014.2023071418200259886708377"}
],
        [
          {
            "ReferencedFrameNumber": 11,
            "ReferencedSOPClassUID": "1.2.840.10008.5.1.4.1.1.4.1",
            "ReferencedSOPInstanceUID": "1.3.12.2.1107.5.2.43.67014.2023071418200259886708377"}
],
        [
          {
            "ReferencedFrameNumber": 12,
            "ReferencedSOPClassUID": "1.2.840.10008.5.1.4.1.1.4.1",
            "ReferencedSOPInstanceUID": "1.3.12.2.1107.5.2.43.67014.2023071418200259886708377"}
],
        [
          {
            "ReferencedFrameNumber": 13,
            "ReferencedSOPClassUID": "1.2.840.10008.5.1.4.1.1.4.1",
            "ReferencedSOPInstanceUID": "1.3.12.2.1107.5.2.43.67014.2023071418200259886708377"}
],
        [
          {
            "ReferencedFrameNumber": 14,
            "ReferencedSOPClassUID": "1.2.840.10008.5.1.4.1.1.4.1",
            "ReferencedSOPInstanceUID": "1.3.12.2.1107.5.2.43.67014.2023071418200259886708377"}
],
        [
          {
            "ReferencedFrameNumber": 15,
            "ReferencedSOPClassUID": "1.2.840.10008.5.1.4.1.1.4.1",
            "ReferencedSOPInstanceUID": "1.3.12.2.1107.5.2.43.67014.2023071418200259886708377"}
],
        [
          {
            "ReferencedFrameNumber": 16,
            "ReferencedSOPClassUID": "1.2.840.10008.5.1.4.1.1.4.1",
            "ReferencedSOPInstanceUID": "1.3.12.2.1107.5.2.43.67014.2023071418200259886708377"}
],
        [
          {
            "ReferencedFrameNumber": 17,
            "ReferencedSOPClassUID": "1.2.840.10008.5.1.4.1.1.4.1",
            "ReferencedSOPInstanceUID": "1.3.12.2.1107.5.2.43.67014.2023071418200259886708377"}
],
        [
          {
            "ReferencedFrameNumber": 18,
            "ReferencedSOPClassUID": "1.2.840.10008.5.1.4.1.1.4.1",
            "ReferencedSOPInstanceUID": "1.3.12.2.1107.5.2.43.67014.2023071418200259886708377"}
],
        [
          {
            "ReferencedFrameNumber": 19,
            "ReferencedSOPClassUID": "1.2.840.10008.5.1.4.1.1.4.1",
            "ReferencedSOPInstanceUID": "1.3.12.2.1107.5.2.43.67014.2023071418200259886708377"}
],
        [
          {
            "ReferencedFrameNumber": 20,
            "ReferencedSOPClassUID": "1.2.840.10008.5.1.4.1.1.4.1",
            "ReferencedSOPInstanceUID": "1.3.12.2.1107.5.2.43.67014.2023071418200259886708377"}
],
        [
          {
            "ReferencedFrameNumber": 21,
            "ReferencedSOPClassUID": "1.2.840.10008.5.1.4.1.1.4.1",
            "ReferencedSOPInstanceUID": "1.3.12.2.1107.5.2.43.67014.2023071418200259886708377"}
],
        [
          {
            "ReferencedFrameNumber": 22,
            "ReferencedSOPClassUID": "1.2.840.10008.5.1.4.1.1.4.1",
            "ReferencedSOPInstanceUID": "1.3.12.2.1107.5.2.43.67014.2023071418200259886708377"}
],
        [
          {
            "ReferencedFrameNumber": 23,
            "ReferencedSOPClassUID": "1.2.840.10008.5.1.4.1.1.4.1",
            "ReferencedSOPInstanceUID": "1.3.12.2.1107.5.2.43.67014.2023071418200259886708377"}
],
        [
          {
            "ReferencedFrameNumber": 24,
            "ReferencedSOPClassUID": "1.2.840.10008.5.1.4.1.1.4.1",
            "ReferencedSOPInstanceUID": "1.3.12.2.1107.5.2.43.67014.2023071418200259886708377"}
],
        [
          {
            "ReferencedFrameNumber": 25,
            "ReferencedSOPClassUID": "1.2.840.10008.5.1.4.1.1.4.1",
            "ReferencedSOPInstanceUID": "1.3.12.2.1107.5.2.43.67014.2023071418200259886708377"}
],
        [
          {
            "ReferencedFrameNumber": 26,
            "ReferencedSOPClassUID": "1.2.840.10008.5.1.4.1.1.4.1",
            "ReferencedSOPInstanceUID": "1.3.12.2.1107.5.2.43.67014.2023071418200259886708377"}
],
        [
          {
            "ReferencedFrameNumber": 27,
            "ReferencedSOPClassUID": "1.2.840.10008.5.1.4.1.1.4.1",
            "ReferencedSOPInstanceUID": "1.3.12.2.1107.5.2.43.67014.2023071418200259886708377"}
],
        [
          {
            "ReferencedFrameNumber": 28,
            "ReferencedSOPClassUID": "1.2.840.10008.5.1.4.1.1.4.1",
            "ReferencedSOPInstanceUID": "1.3.12.2.1107.5.2.43.67014.2023071418200259886708377"}
],
        [
          {
            "ReferencedFrameNumber": 29,
            "ReferencedSOPClassUID": "1.2.840.10008.5.1.4.1.1.4.1",
            "ReferencedSOPInstanceUID": "1.3.12.2.1107.5.2.43.67014.2023071418200259886708377"}
],
        [
          {
            "ReferencedFrameNumber": 30,
            "ReferencedSOPClassUID": "1.2.840.10008.5.1.4.1.1.4.1",
            "ReferencedSOPInstanceUID": "1.3.12.2.1107.5.2.43.67014.2023071418200259886708377"}
],
        [
          {
            "ReferencedFrameNumber": 31,
            "ReferencedSOPClassUID": "1.2.840.10008.5.1.4.1.1.4.1",
            "ReferencedSOPInstanceUID": "1.3.12.2.1107.5.2.43.67014.2023071418200259886708377"}
],
        [
          {
            "ReferencedFrameNumber": 32,
            "ReferencedSOPClassUID": "1.2.840.10008.5.1.4.1.1.4.1",
            "ReferencedSOPInstanceUID": "1.3.12.2.1107.5.2.43.67014.2023071418200259886708377"}
],
        [
          {
            "ReferencedFrameNumber": 33,
            "ReferencedSOPClassUID": "1.2.840.10008.5.1.4.1.1.4.1",
            "ReferencedSOPInstanceUID": "1.3.12.2.1107.5.2.43.67014.2023071418200259886708377"}
],
        [
          {
            "ReferencedFrameNumber": 34,
            "ReferencedSOPClassUID": "1.2.840.10008.5.1.4.1.1.4.1",
            "ReferencedSOPInstanceUID": "1.3.12.2.1107.5.2.43.67014.2023071418200259886708377"}
],
        [
          {
            "ReferencedFrameNumber": 35,
            "ReferencedSOPClassUID": "1.2.840.10008.5.1.4.1.1.4.1",
            "ReferencedSOPInstanceUID": "1.3.12.2.1107.5.2.43.67014.2023071418200259886708377"}
],
        [
          {
            "ReferencedFrameNumber": 36,
            "ReferencedSOPClassUID": "1.2.840.10008.5.1.4.1.1.4.1",
            "ReferencedSOPInstanceUID": "1.3.12.2.1107.5.2.43.67014.2023071418200259886708377"}
],
        [
          {
            "ReferencedFrameNumber": 37,
            "ReferencedSOPClassUID": "1.2.840.10008.5.1.4.1.1.4.1",
            "ReferencedSOPInstanceUID": "1.3.12.2.1107.5.2.43.67014.2023071418200259886708377"}
],
        [
          {
            "ReferencedFrameNumber": 38,
            "ReferencedSOPClassUID": "1.2.840.10008.5.1.4.1.1.4.1",
            "ReferencedSOPInstanceUID": "1.3.12.2.1107.5.2.43.67014.2023071418200259886708377"}
],
        [
          {
            "ReferencedFrameNumber": 39,
            "ReferencedSOPClassUID": "1.2.840.10008.5.1.4.1.1.4.1",
            "ReferencedSOPInstanceUID": "1.3.12.2.1107.5.2.43.67014.2023071418200259886708377"}
],
        [
          {
            "ReferencedFrameNumber": 40,
            "ReferencedSOPClassUID": "1.2.840.10008.5.1.4.1.1.4.1",
            "ReferencedSOPInstanceUID": "1.3.12.2.1107.5.2.43.67014.2023071418200259886708377"}
],
        [
          {
            "ReferencedFrameNumber": 41,
            "ReferencedSOPClassUID": "1.2.840.10008.5.1.4.1.1.4.1",
            "ReferencedSOPInstanceUID": "1.3.12.2.1107.5.2.43.67014.2023071418200259886708377"}
],
        [
          {
            "ReferencedFrameNumber": 42,
            "ReferencedSOPClassUID": "1.2.840.10008.5.1.4.1.1.4.1",
            "ReferencedSOPInstanceUID": "1.3.12.2.1107.5.2.43.67014.2023071418200259886708377"}
],
        [
          {
            "ReferencedFrameNumber": 43,
            "ReferencedSOPClassUID": "1.2.840.10008.5.1.4.1.1.4.1",
            "ReferencedSOPInstanceUID": "1.3.12.2.1107.5.2.43.67014.2023071418200259886708377"}
],
        [
          {
            "ReferencedFrameNumber": 44,
            "ReferencedSOPClassUID": "1.2.840.10008.5.1.4.1.1.4.1",
            "ReferencedSOPInstanceUID": "1.3.12.2.1107.5.2.43.67014.2023071418200259886708377"}
],
        [
          {
            "ReferencedFrameNumber": 45,
            "ReferencedSOPClassUID": "1.2.840.10008.5.1.4.1.1.4.1",
            "ReferencedSOPInstanceUID": "1.3.12.2.1107.5.2.43.67014.2023071418200259886708377"}
],
        [
          {
            "ReferencedFrameNumber": 46,
            "ReferencedSOPClassUID": "1.2.840.10008.5.1.4.1.1.4.1",
            "ReferencedSOPInstanceUID": "1.3.12.2.1107.5.2.43.67014.2023071418200259886708377"}
],
        [
          {
            "ReferencedFrameNumber": 47,
            "ReferencedSOPClassUID": "1.2.840.10008.5.1.4.1.1.4.1",
            "ReferencedSOPInstanceUID": "1.3.12.2.1107.5.2.43.67014.2023071418200259886708377"}
],
        [
          {
            "ReferencedFrameNumber": 48,
            "ReferencedSOPClassUID": "1.2.840.10008.5.1.4.1.1.4.1",
            "ReferencedSOPInstanceUID": "1.3.12.2.1107.5.2.43.67014.2023071418200259886708377"}
],
        [
          {
            "ReferencedFrameNumber": 49,
            "ReferencedSOPClassUID": "1.2.840.10008.5.1.4.1.1.4.1",
            "ReferencedSOPInstanceUID": "1.3.12.2.1107.5.2.43.67014.2023071418200259886708377"}
],
        [
          {
            "ReferencedFrameNumber": 50,
            "ReferencedSOPClassUID": "1.2.840.10008.5.1.4.1.1.4.1",
            "ReferencedSOPInstanceUID": "1.3.12.2.1107.5.2.43.67014.2023071418200259886708377"}
],
        [
          {
            "ReferencedFrameNumber": 51,
            "ReferencedSOPClassUID": "1.2.840.10008.5.1.4.1.1.4.1",
            "ReferencedSOPInstanceUID": "1.3.12.2.1107.5.2.43.67014.2023071418200259886708377"}
],
        [
          {
            "ReferencedFrameNumber": 52,
            "ReferencedSOPClassUID": "1.2.840.10008.5.1.4.1.1.4.1",
            "ReferencedSOPInstanceUID": "1.3.12.2.1107.5.2.43.67014.2023071418200259886708377"}
],
        [
          {
            "ReferencedFrameNumber": 53,
            "ReferencedSOPClassUID": "1.2.840.10008.5.1.4.1.1.4.1",
            "ReferencedSOPInstanceUID": "1.3.12.2.1107.5.2.43.67014.2023071418200259886708377"}
],
        [
          {
            "ReferencedFrameNumber": 54,
            "ReferencedSOPClassUID": "1.2.840.10008.5.1.4.1.1.4.1",
            "ReferencedSOPInstanceUID": "1.3.12.2.1107.5.2.43.67014.2023071418200259886708377"}
],
        [
          {
            "ReferencedFrameNumber": 55,
            "ReferencedSOPClassUID": "1.2.840.10008.5.1.4.1.1.4.1",
            "ReferencedSOPInstanceUID": "1.3.12.2.1107.5.2.43.67014.2023071418200259886708377"}
],
        [
          {
            "ReferencedFrameNumber": 56,
            "ReferencedSOPClassUID": "1.2.840.10008.5.1.4.1.1.4.1",
            "ReferencedSOPInstanceUID": "1.3.12.2.1107.5.2.43.67014.2023071418200259886708377"}
],
        [
          {
            "ReferencedFrameNumber": 57,
            "ReferencedSOPClassUID": "1.2.840.10008.5.1.4.1.1.4.1",
            "ReferencedSOPInstanceUID": "1.3.12.2.1107.5.2.43.67014.2023071418200259886708377"}
],
        [
          {
            "ReferencedFrameNumber": 58,
            "ReferencedSOPClassUID": "1.2.840.10008.5.1.4.1.1.4.1",
            "ReferencedSOPInstanceUID": "1.3.12.2.1107.5.2.43.67014.2023071418200259886708377"}
],
        [
          {
            "ReferencedFrameNumber": 59,
            "ReferencedSOPClassUID": "1.2.840.10008.5.1.4.1.1.4.1",
            "ReferencedSOPInstanceUID": "1.3.12.2.1107.5.2.43.67014.2023071418200259886708377"}
],
        [
          {
            "ReferencedFrameNumber": 60,
            "ReferencedSOPClassUID": "1.2.840.10008.5.1.4.1.1.4.1",
            "ReferencedSOPInstanceUID": "1.3.12.2.1107.5.2.43.67014.2023071418200259886708377"}
],
        [
          {
            "ReferencedFrameNumber": 61,
            "ReferencedSOPClassUID": "1.2.840.10008.5.1.4.1.1.4.1",
            "ReferencedSOPInstanceUID": "1.3.12.2.1107.5.2.43.67014.2023071418200259886708377"}
],
        [
          {
            "ReferencedFrameNumber": 62,
            "ReferencedSOPClassUID": "1.2.840.10008.5.1.4.1.1.4.1",
            "ReferencedSOPInstanceUID": "1.3.12.2.1107.5.2.43.67014.2023071418200259886708377"}
],
        [
          {
            "ReferencedFrameNumber": 63,
            "ReferencedSOPClassUID": "1.2.840.10008.5.1.4.1.1.4.1",
            "ReferencedSOPInstanceUID": "1.3.12.2.1107.5.2.43.67014.2023071418200259886708377"}
],
        [
          {
            "ReferencedFrameNumber": 64,
            "ReferencedSOPClassUID": "1.2.840.10008.5.1.4.1.1.4.1",
            "ReferencedSOPInstanceUID": "1.3.12.2.1107.5.2.43.67014.2023071418200259886708377"}
],
        [
          {
            "ReferencedFrameNumber": 65,
            "ReferencedSOPClassUID": "1.2.840.10008.5.1.4.1.1.4.1",
            "ReferencedSOPInstanceUID": "1.3.12.2.1107.5.2.43.67014.2023071418200259886708377"}
],
        [
          {
            "ReferencedFrameNumber": 66,
            "ReferencedSOPClassUID": "1.2.840.10008.5.1.4.1.1.4.1",
            "ReferencedSOPInstanceUID": "1.3.12.2.1107.5.2.43.67014.2023071418200259886708377"}
],
        [
          {
            "ReferencedFrameNumber": 67,
            "ReferencedSOPClassUID": "1.2.840.10008.5.1.4.1.1.4.1",
            "ReferencedSOPInstanceUID": "1.3.12.2.1107.5.2.43.67014.2023071418200259886708377"}
],
        [
          {
            "ReferencedFrameNumber": 68,
            "ReferencedSOPClassUID": "1.2.840.10008.5.1.4.1.1.4.1",
            "ReferencedSOPInstanceUID": "1.3.12.2.1107.5.2.43.67014.2023071418200259886708377"}
],
        [
          {
            "ReferencedFrameNumber": 69,
            "ReferencedSOPClassUID": "1.2.840.10008.5.1.4.1.1.4.1",
            "ReferencedSOPInstanceUID": "1.3.12.2.1107.5.2.43.67014.2023071418200259886708377"}
],
        [
          {
            "ReferencedFrameNumber": 70,
            "ReferencedSOPClassUID": "1.2.840.10008.5.1.4.1.1.4.1",
            "ReferencedSOPInstanceUID": "1.3.12.2.1107.5.2.43.67014.2023071418200259886708377"}
],
        [
          {
            "ReferencedFrameNumber": 71,
            "ReferencedSOPClassUID": "1.2.840.10008.5.1.4.1.1.4.1",
            "ReferencedSOPInstanceUID": "1.3.12.2.1107.5.2.43.67014.2023071418200259886708377"}
],
        [
          {
            "ReferencedFrameNumber": 72,
            "ReferencedSOPClassUID": "1.2.840.10008.5.1.4.1.1.4.1",
            "ReferencedSOPInstanceUID": "1.3.12.2.1107.5.2.43.67014.2023071418200259886708377"}
],
        [
          {
            "ReferencedFrameNumber": 73,
            "ReferencedSOPClassUID": "1.2.840.10008.5.1.4.1.1.4.1",
            "ReferencedSOPInstanceUID": "1.3.12.2.1107.5.2.43.67014.2023071418200259886708377"}
],
        [
          {
            "ReferencedFrameNumber": 74,
            "ReferencedSOPClassUID": "1.2.840.10008.5.1.4.1.1.4.1",
            "ReferencedSOPInstanceUID": "1.3.12.2.1107.5.2.43.67014.2023071418200259886708377"}
],
        [
          {
            "ReferencedFrameNumber": 75,
            "ReferencedSOPClassUID": "1.2.840.10008.5.1.4.1.1.4.1",
            "ReferencedSOPInstanceUID": "1.3.12.2.1107.5.2.43.67014.2023071418200259886708377"}
],
        [
          {
            "ReferencedFrameNumber": 76,
            "ReferencedSOPClassUID": "1.2.840.10008.5.1.4.1.1.4.1",
            "ReferencedSOPInstanceUID": "1.3.12.2.1107.5.2.43.67014.2023071418200259886708377"}
],
        [
          {
            "ReferencedFrameNumber": 77,
            "ReferencedSOPClassUID": "1.2.840.10008.5.1.4.1.1.4.1",
            "ReferencedSOPInstanceUID": "1.3.12.2.1107.5.2.43.67014.2023071418200259886708377"}
],
        [
          {
            "ReferencedFrameNumber": 78,
            "ReferencedSOPClassUID": "1.2.840.10008.5.1.4.1.1.4.1",
            "ReferencedSOPInstanceUID": "1.3.12.2.1107.5.2.43.67014.2023071418200259886708377"}
],
        [
          {
            "ReferencedFrameNumber": 79,
            "ReferencedSOPClassUID": "1.2.840.10008.5.1.4.1.1.4.1",
            "ReferencedSOPInstanceUID": "1.3.12.2.1107.5.2.43.67014.2023071418200259886708377"}
],
        [
          {
            "ReferencedFrameNumber": 80,
            "ReferencedSOPClassUID": "1.2.840.10008.5.1.4.1.1.4.1",
            "ReferencedSOPInstanceUID": "1.3.12.2.1107.5.2.43.67014.2023071418200259886708377"}
],
        [
          {
            "ReferencedFrameNumber": 81,
            "ReferencedSOPClassUID": "1.2.840.10008.5.1.4.1.1.4.1",
            "ReferencedSOPInstanceUID": "1.3.12.2.1107.5.2.43.67014.2023071418200259886708377"}
],
        [
          {
            "ReferencedFrameNumber": 82,
            "ReferencedSOPClassUID": "1.2.840.10008.5.1.4.1.1.4.1",
            "ReferencedSOPInstanceUID": "1.3.12.2.1107.5.2.43.67014.2023071418200259886708377"}
],
        [
          {
            "ReferencedFrameNumber": 83,
            "ReferencedSOPClassUID": "1.2.840.10008.5.1.4.1.1.4.1",
            "ReferencedSOPInstanceUID": "1.3.12.2.1107.5.2.43.67014.2023071418200259886708377"}
],
        [
          {
            "ReferencedFrameNumber": 84,
            "ReferencedSOPClassUID": "1.2.840.10008.5.1.4.1.1.4.1",
            "ReferencedSOPInstanceUID": "1.3.12.2.1107.5.2.43.67014.2023071418200259886708377"}
],
        [
          {
