{
  "AcquisitionMatrixPE": 146,
  "AcquisitionNumber": 1,
  "AcquisitionTime": "18:25:0.212500",
  "BandwidthPerPixelPhaseEncode": 19.569,
  "BaseResolution": 146,
  "BodyPartExamined": "BRAIN",
  "CoilCombinationMethod": "Adaptive Combine",
  "CoilString": "HeadNeck_64",
  "ConversionSoftware": "dcm2niix",
  "ConversionSoftwareVersion": "v1.0.20220720",
  "DerivedVendorReportedEchoSpacing": 0.000700017,
  "DeviceSerialNumber": "67014",
  "DiffusionScheme": "Monopolar",
  "DwellTime": 2.1e-06,
  "EchoTime": 0.09,
  "EchoTrainLength": 64,
  "EffectiveEchoSpacing": 0.000350008,
  "FlipAngle": 90,
  "HeudiconvVersion": "0.12.2",
  "ImageOrientationPatientDICOM": [0.99786, 0.00412125, 0.065256, 0.012366, 0.968106, -0.250234],
  "ImageType": [
    "ORIGINAL",
    "PRIMARY",
    "DIFFUSION",
    "NONE",
    "ND",
    "MFSPLIT"
],
  "ImageTypeText": [
    "ORIGINAL",
    "PRIMARY",
    "DIFFUSION",
    "NONE"
],
  "ImagingFrequency": 123.248,
  "InPlanePhaseEncodingDirectionDICOM": "COL",
  "InstitutionAddress": "Rue du Bugnon 21,Lausanne,District,CH,1011",
  "InstitutionName": "CHUV",
  "MRAcquisitionType": "2D",
  "MagneticFieldStrength": 3,
  "Manufacturer": "Siemens",
  "ManufacturersModelName": "MAGNETOM Prisma Fit",
  "Modality": "MR",
  "MultibandAccelerationFactor": 3,
  "NonlinearGradientCorrection": false,
  "ParallelReductionFactorInPlane": 2,
  "PartialFourier": 0.875,
  "PatientPosition": "HFS",
  "PercentPhaseFOV": 100,
  "PercentSampling": 100,
  "PhaseEncodingDirection": "j-",
  "PhaseEncodingSteps": 146,
  "PhaseResolution": 1,
  "PixelBandwidth": 1631,
  "ProcedureStepDescription": "RESEARCH Oscar",
  "ProtocolName": "fmap-epi_acq-b0_dir-AP__6dir_monopolar",
  "PulseSequenceDetails": "%SiemensSeq%\\ep2d_diff",
  "ReceiveCoilActiveElements": "HC1-7",
  "ReceiveCoilName": "HeadNeck_64",
  "ReconMatrixPE": 146,
  "RefLinesPE": 54,
  "RepetitionTime": 3.9,
  "SAR": 0.198668,
  "ScanOptions": "PFP\\FS\\PER",
  "ScanningSequence": "GR\\EP",
  "SequenceName": "*ep_b0",
  "SequenceVariant": "SK",
  "SeriesDescription": "fmap-epi_acq-b0_dir-AP__6dir_monopolar",
  "SeriesNumber": 12,
  "ShimSetting": [8246, -5627, -6027, 670, -26, -213, 25, 20],
  "SliceThickness": 1.6,
  "SliceTiming": [0, 5.7925, 0.13, 5.9225, 0.2625, 6.055, 0.395, 6.1875, 0.525, 6.3175, 0.6575, 6.45, 0.79, 6.5825, 0.92, 6.7125, 1.0525, 6.845, 1.185, 6.9775, 1.315, 7.1075, 1.4475, 7.24, 1.58, 7.37, 1.71, 7.5025, 1.8425, 7.635, 1.975, 7.765, 2.105, 7.8975, 2.2375, 8.03, 2.37, 8.16, 2.5, 8.2925, 2.6325, 8.425, 2.765, 8.555, 2.895, 8.6875, 3.0275, 8.82, 3.1575, 8.95, 3.29, 9.0825, 3.4225, 9.215, 3.5525, 9.345, 3.685, 9.4775, 3.8175, 9.61, 3.9475, 9.74, 4.08, 9.8725, 4.2125, 10.005, 4.3425, 10.135, 4.475, 10.2675, 4.6075, 10.4, 4.7375, 10.53, 4.87, 10.6625, 5.0025, 10.795, 5.1325, 10.925, 5.265, 11.0575, 5.3975, 11.1875, 5.5275, 11.32, 5.66],
  "SoftwareVersions": "syngo MR XA30",
  "SpacingBetweenSlices": 1.6,
  "StationName": "LRG10884",
  "TotalReadoutTime": 0.0507512,
  "TxRefAmp": 248.2,
  "VendorReportedEchoSpacing": 0.0007,
  "dcmmeta_affine": [
    [-1.5993101596832275, 0.019819483160972595, 0.10300000011920929, 116.10917663574219],
    [-0.006605292204767466, 1.5516221523284912, -0.4009999930858612, -70.38121795654297],
    [0.10458840429782867, 0.4010600447654724, 1.5458999872207642, -90.26510620117188],
    [0.0, 0.0, 0.0, 1.0]
],
  "dcmmeta_reorient_transform": [
    [0.0, -1.0, 0.0, 145.0],
    [1.0, 0.0, 0.0, 0.0],
    [0.0, 0.0, -1.0, 86.0],
    [0.0, 0.0, 0.0, 1.0]
],
  "dcmmeta_shape": [146, 146, 87, 3],
  "dcmmeta_slice_dim": 2,
  "dcmmeta_version": 0.6,
  "global": {
    "const": {
      "AcquisitionMatrix": [146, 0, 0, 146],
      "AngioFlag": "N",
      "BeatRejectionFlag": "N",
      "BitsAllocated": 16,
      "BitsStored": 12,
      "BodyPartExamined": "BRAIN",
      "BurnedInAnnotation": "NO",
      "CardiacNumberOfImages": 1,
      "Columns": 146,
      "ConfidentialityCode": "N",
      "ContentQualification": "PRODUCT",
      "EchoTime": 90.0,
      "EchoTrainLength": 64,
      "FlipAngle": 90.0,
      "HighBit": 11,
      "ImageOrientationPatient": [0.99786, 0.00412125, 0.065256, 0.012366, 0.968106, -0.250234],
      "ImageType": [
        "ORIGINAL",
        "PRIMARY",
        "DIFFUSION",
        "NONE",
        "ND",
        "MFSPLIT"
],
      "ImagedNucleus": "1H",
      "ImagingFrequency": 123.248139,
      "InPlanePhaseEncodingDirection": "COL",
      "LargestImagePixelValue": 4095,
      "LossyImageCompression": "00",
      "MRAcquisitionType": "2D",
      "MagneticFieldStrength": 3.0,
      "Manufacturer": "Siemens Healthineers",
      "ManufacturerModelName": "MAGNETOM Prisma Fit",
      "ModalitiesInStudy": [
        "MR",
        "SR"
],
      "Modality": "MR",
      "NumberOfAverages": 1.0,
      "NumberOfPhaseEncodingSteps": 146,
      "NumberOfStudyRelatedInstances": 19630,
      "NumberOfTemporalPositions": 3,
      "PercentPhaseFieldOfView": 100.0,
      "PercentSampling": 100.0,
      "PerformedProcedureStepStartTime": "173557.800000",
      "PhotometricInterpretation": "MONOCHROME2",
      "PixelBandwidth": 1631.0,
      "PixelRepresentation": 0,
      "PixelSpacing": [1.60274, 1.60274],
      "PresentationLUTShape": "IDENTITY",
      "ProtocolName": "fmap-epi_acq-b0_dir-AP__6dir_monopolar",
      "ReceiveCoilName": "HeadNeck_64",
      "RepetitionTime": 3900.0,
      "RescaleIntercept": 0.0,
      "RescaleSlope": 1.0,
      "Rows": 146,
      "SAR": 0.19866759608792,
      "SamplesPerPixel": 1,
      "ScanOptions": [
        "PFP",
        "FS",
        "PER"
],
      "ScanningSequence": [
        "GR",
        "EP"
],
      "SequenceName": "*ep_b0",
      "SequenceVariant": "SK",
      "SeriesDescription": "fmap-epi_acq-b0_dir-AP__6dir_monopolar",
      "SeriesNumber": 12,
      "SeriesTime": "182455",
      "SliceThickness": 1.6,
      "SmallestImagePixelValue": 0,
      "SoftwareVersions": "syngo MR XA30",
      "SpacingBetweenSlices": 1.6,
      "SpecificCharacterSet": "ISO_IR 100",
      "StudyID": "30c4fcde-29cb-48",
      "StudyTime": "173557",
      "TransmitCoilName": "Body"
    },
    "slices": {
      "AcquisitionTime": ["182500.212500", "182502.220000", "182500.345000", "182502.352500", "182500.480000", "182502.487500", "182500.612500", "182502.620000", "182500.747500", "182502.755000", "182500.882500", "182502.887500", "182501.015000", "182503.022500", "182501.150000", "182503.155000", "182501.282500", "182503.290000", "182501.417500", "182503.422500", "182501.550000", "182503.557500", "182501.685000", "182503.690000", "182501.817500", "182503.825000", "182501.952500", "182503.957500", "182502.085000", "182500.212500", "182502.220000", "182500.345000", "182502.352500", "182500.480000", "182502.487500", "182500.612500", "182502.620000", "182500.747500", "182502.755000", "182500.882500", "182502.887500", "182501.015000", "182503.022500", "182501.150000", "182503.155000", "182501.282500", "182503.290000", "182501.417500", "182503.422500", "182501.550000", "182503.557500", "182501.685000", "182503.690000", "182501.817500", "182503.825000", "182501.952500", "182503.957500", "182502.085000", "182500.212500", "182502.220000", "182500.345000", "182502.352500", "182500.480000", "182502.487500", "182500.612500", "182502.620000", "182500.747500", "182502.755000", "182500.882500", "182502.887500", "182501.015000", "182503.022500", "182501.150000", "182503.155000", "182501.282500", "182503.290000", "182501.417500", "182503.422500", "182501.550000", "182503.557500", "182501.685000", "182503.690000", "182501.817500", "182503.825000", "182501.952500", "182503.957500", "182502.085000", "182504.112500", "182506.120000", "182504.245000", "182506.252500", "182504.380000", "182506.387500", "182504.512500", "182506.520000", "182504.647500", "182506.655000", "182504.782500", "182506.787500", "182504.915000", "182506.922500", "182505.050000", "182507.055000", "182505.182500", "182507.190000", "182505.317500", "182507.322500", "182505.450000", "182507.457500", "182505.585000", "182507.590000", "182505.717500", "182507.725000", "182505.852500", "182507.857500", "182505.985000", "182504.112500", "182506.120000", "182504.245000", "182506.252500", "182504.380000", "182506.387500", "182504.512500", "182506.520000", "182504.647500", "182506.655000", "182504.782500", "182506.787500", "182504.915000", "182506.922500", "182505.050000", "182507.055000", "182505.182500", "182507.190000", "182505.317500", "182507.322500", "182505.450000", "182507.457500", "182505.585000", "182507.590000", "182505.717500", "182507.725000", "182505.852500", "182507.857500", "182505.985000", "182504.112500", "182506.120000", "182504.245000", "182506.252500", "182504.380000", "182506.387500", "182504.512500", "182506.520000", "182504.647500", "182506.655000", "182504.782500", "182506.787500", "182504.915000", "182506.922500", "182505.050000", "182507.055000", "182505.182500", "182507.190000", "182505.317500", "182507.322500", "182505.450000", "182507.457500", "182505.585000", "182507.590000", "182505.717500", "182507.725000", "182505.852500", "182507.857500", "182505.985000", "182508.012500", "182510.020000", "182508.145000", "182510.152500", "182508.280000", "182510.287500", "182508.412500", "182510.420000", "182508.547500", "182510.555000", "182508.682500", "182510.687500", "182508.815000", "182510.822500", "182508.950000", "182510.955000", "182509.082500", "182511.090000", "182509.217500", "182511.222500", "182509.350000", "182511.357500", "182509.485000", "182511.490000", "182509.617500", "182511.625000", "182509.752500", "182511.757500", "182509.885000", "182508.012500", "182510.020000", "182508.145000", "182510.152500", "182508.280000", "182510.287500", "182508.412500", "182510.420000", "182508.547500", "182510.555000", "182508.682500", "182510.687500", "182508.815000", "182510.822500", "182508.950000", "182510.955000", "182509.082500", "182511.090000", "182509.217500", "182511.222500", "182509.350000", "182511.357500", "182509.485000", "182511.490000", "182509.617500", "182511.625000", "182509.752500", "182511.757500", "182509.885000", "182508.012500", "182510.020000", "182508.145000", "182510.152500", "182508.280000", "182510.287500", "182508.412500", "182510.420000", "182508.547500", "182510.555000", "182508.682500", "182510.687500", "182508.815000", "182510.822500", "182508.950000", "182510.955000", "182509.082500", "182511.090000", "182509.217500", "182511.222500", "182509.350000", "182511.357500", "182509.485000", "182511.490000", "182509.617500", "182511.625000", "182509.752500", "182511.757500", "182509.885000"],
      "ConversionSourceAttributesSequence": [
        [
          {
            "ReferencedFrameNumber": 1,
            "ReferencedSOPClassUID": "1.2.840.10008.5.1.4.1.1.4.1",
            "ReferencedSOPInstanceUID": "1.3.12.2.1107.5.2.43.67014.2023071418250563321210554"}
],
        [
          {
            "ReferencedFrameNumber": 2,
            "ReferencedSOPClassUID": "1.2.840.10008.5.1.4.1.1.4.1",
            "ReferencedSOPInstanceUID": "1.3.12.2.1107.5.2.43.67014.2023071418250563321210554"}
],
        [
          {
            "ReferencedFrameNumber": 3,
            "ReferencedSOPClassUID": "1.2.840.10008.5.1.4.1.1.4.1",
            "ReferencedSOPInstanceUID": "1.3.12.2.1107.5.2.43.67014.2023071418250563321210554"}
],
        [
          {
            "ReferencedFrameNumber": 4,
            "ReferencedSOPClassUID": "1.2.840.10008.5.1.4.1.1.4.1",
            "ReferencedSOPInstanceUID": "1.3.12.2.1107.5.2.43.67014.2023071418250563321210554"}
],
        [
          {
            "ReferencedFrameNumber": 5,
            "ReferencedSOPClassUID": "1.2.840.10008.5.1.4.1.1.4.1",
            "ReferencedSOPInstanceUID": "1.3.12.2.1107.5.2.43.67014.2023071418250563321210554"}
],
        [
          {
            "ReferencedFrameNumber": 6,
            "ReferencedSOPClassUID": "1.2.840.10008.5.1.4.1.1.4.1",
            "ReferencedSOPInstanceUID": "1.3.12.2.1107.5.2.43.67014.2023071418250563321210554"}
],
        [
          {
            "ReferencedFrameNumber": 7,
            "ReferencedSOPClassUID": "1.2.840.10008.5.1.4.1.1.4.1",
            "ReferencedSOPInstanceUID": "1.3.12.2.1107.5.2.43.67014.2023071418250563321210554"}
],
        [
          {
            "ReferencedFrameNumber": 8,
            "ReferencedSOPClassUID": "1.2.840.10008.5.1.4.1.1.4.1",
            "ReferencedSOPInstanceUID": "1.3.12.2.1107.5.2.43.67014.2023071418250563321210554"}
],
        [
          {
            "ReferencedFrameNumber": 9,
            "ReferencedSOPClassUID": "1.2.840.10008.5.1.4.1.1.4.1",
            "ReferencedSOPInstanceUID": "1.3.12.2.1107.5.2.43.67014.2023071418250563321210554"}
],
        [
          {
            "ReferencedFrameNumber": 10,
            "ReferencedSOPClassUID": "1.2.840.10008.5.1.4.1.1.4.1",
            "ReferencedSOPInstanceUID": "1.3.12.2.1107.5.2.43.67014.2023071418250563321210554"}
],
        [
          {
            "ReferencedFrameNumber": 11,
            "ReferencedSOPClassUID": "1.2.840.10008.5.1.4.1.1.4.1",
            "ReferencedSOPInstanceUID": "1.3.12.2.1107.5.2.43.67014.2023071418250563321210554"}
],
        [
          {
            "ReferencedFrameNumber": 12,
            "ReferencedSOPClassUID": "1.2.840.10008.5.1.4.1.1.4.1",
            "ReferencedSOPInstanceUID": "1.3.12.2.1107.5.2.43.67014.2023071418250563321210554"}
],
        [
          {
            "ReferencedFrameNumber": 13,
            "ReferencedSOPClassUID": "1.2.840.10008.5.1.4.1.1.4.1",
            "ReferencedSOPInstanceUID": "1.3.12.2.1107.5.2.43.67014.2023071418250563321210554"}
],
        [
          {
            "ReferencedFrameNumber": 14,
            "ReferencedSOPClassUID": "1.2.840.10008.5.1.4.1.1.4.1",
            "ReferencedSOPInstanceUID": "1.3.12.2.1107.5.2.43.67014.2023071418250563321210554"}
],
        [
          {
            "ReferencedFrameNumber": 15,
            "ReferencedSOPClassUID": "1.2.840.10008.5.1.4.1.1.4.1",
            "ReferencedSOPInstanceUID": "1.3.12.2.1107.5.2.43.67014.2023071418250563321210554"}
],
        [
          {
            "ReferencedFrameNumber": 16,
            "ReferencedSOPClassUID": "1.2.840.10008.5.1.4.1.1.4.1",
            "ReferencedSOPInstanceUID": "1.3.12.2.1107.5.2.43.67014.2023071418250563321210554"}
],
        [
          {
            "ReferencedFrameNumber": 17,
            "ReferencedSOPClassUID": "1.2.840.10008.5.1.4.1.1.4.1",
            "ReferencedSOPInstanceUID": "1.3.12.2.1107.5.2.43.67014.2023071418250563321210554"}
],
        [
          {
            "ReferencedFrameNumber": 18,
            "ReferencedSOPClassUID": "1.2.840.10008.5.1.4.1.1.4.1",
            "ReferencedSOPInstanceUID": "1.3.12.2.1107.5.2.43.67014.2023071418250563321210554"}
],
        [
          {
            "ReferencedFrameNumber": 19,
            "ReferencedSOPClassUID": "1.2.840.10008.5.1.4.1.1.4.1",
            "ReferencedSOPInstanceUID": "1.3.12.2.1107.5.2.43.67014.2023071418250563321210554"}
],
        [
          {
            "ReferencedFrameNumber": 20,
            "ReferencedSOPClassUID": "1.2.840.10008.5.1.4.1.1.4.1",
            "ReferencedSOPInstanceUID": "1.3.12.2.1107.5.2.43.67014.2023071418250563321210554"}
],
        [
          {
            "ReferencedFrameNumber": 21,
            "ReferencedSOPClassUID": "1.2.840.10008.5.1.4.1.1.4.1",
            "ReferencedSOPInstanceUID": "1.3.12.2.1107.5.2.43.67014.2023071418250563321210554"}
],
        [
          {
            "ReferencedFrameNumber": 22,
            "ReferencedSOPClassUID": "1.2.840.10008.5.1.4.1.1.4.1",
            "ReferencedSOPInstanceUID": "1.3.12.2.1107.5.2.43.67014.2023071418250563321210554"}
],
        [
          {
            "ReferencedFrameNumber": 23,
            "ReferencedSOPClassUID": "1.2.840.10008.5.1.4.1.1.4.1",
            "ReferencedSOPInstanceUID": "1.3.12.2.1107.5.2.43.67014.2023071418250563321210554"}
],
        [
          {
            "ReferencedFrameNumber": 24,
            "ReferencedSOPClassUID": "1.2.840.10008.5.1.4.1.1.4.1",
            "ReferencedSOPInstanceUID": "1.3.12.2.1107.5.2.43.67014.2023071418250563321210554"}
],
        [
          {
            "ReferencedFrameNumber": 25,
            "ReferencedSOPClassUID": "1.2.840.10008.5.1.4.1.1.4.1",
            "ReferencedSOPInstanceUID": "1.3.12.2.1107.5.2.43.67014.2023071418250563321210554"}
],
        [
          {
            "ReferencedFrameNumber": 26,
            "ReferencedSOPClassUID": "1.2.840.10008.5.1.4.1.1.4.1",
            "ReferencedSOPInstanceUID": "1.3.12.2.1107.5.2.43.67014.2023071418250563321210554"}
],
        [
          {
            "ReferencedFrameNumber": 27,
            "ReferencedSOPClassUID": "1.2.840.10008.5.1.4.1.1.4.1",
            "ReferencedSOPInstanceUID": "1.3.12.2.1107.5.2.43.67014.2023071418250563321210554"}
],
        [
          {
            "ReferencedFrameNumber": 28,
            "ReferencedSOPClassUID": "1.2.840.10008.5.1.4.1.1.4.1",
            "ReferencedSOPInstanceUID": "1.3.12.2.1107.5.2.43.67014.2023071418250563321210554"}
],
        [
          {
            "ReferencedFrameNumber": 29,
            "ReferencedSOPClassUID": "1.2.840.10008.5.1.4.1.1.4.1",
            "ReferencedSOPInstanceUID": "1.3.12.2.1107.5.2.43.67014.2023071418250563321210554"}
],
        [
          {
            "ReferencedFrameNumber": 30,
            "ReferencedSOPClassUID": "1.2.840.10008.5.1.4.1.1.4.1",
            "ReferencedSOPInstanceUID": "1.3.12.2.1107.5.2.43.67014.2023071418250563321210554"}
],
        [
          {
            "ReferencedFrameNumber": 31,
            "ReferencedSOPClassUID": "1.2.840.10008.5.1.4.1.1.4.1",
            "ReferencedSOPInstanceUID": "1.3.12.2.1107.5.2.43.67014.2023071418250563321210554"}
],
        [
          {
            "ReferencedFrameNumber": 32,
            "ReferencedSOPClassUID": "1.2.840.10008.5.1.4.1.1.4.1",
            "ReferencedSOPInstanceUID": "1.3.12.2.1107.5.2.43.67014.2023071418250563321210554"}
],
        [
          {
            "ReferencedFrameNumber": 33,
            "ReferencedSOPClassUID": "1.2.840.10008.5.1.4.1.1.4.1",
            "ReferencedSOPInstanceUID": "1.3.12.2.1107.5.2.43.67014.2023071418250563321210554"}
],
        [
          {
            "ReferencedFrameNumber": 34,
            "ReferencedSOPClassUID": "1.2.840.10008.5.1.4.1.1.4.1",
            "ReferencedSOPInstanceUID": "1.3.12.2.1107.5.2.43.67014.2023071418250563321210554"}
],
        [
          {
            "ReferencedFrameNumber": 35,
            "ReferencedSOPClassUID": "1.2.840.10008.5.1.4.1.1.4.1",
            "ReferencedSOPInstanceUID": "1.3.12.2.1107.5.2.43.67014.2023071418250563321210554"}
],
        [
          {
            "ReferencedFrameNumber": 36,
            "ReferencedSOPClassUID": "1.2.840.10008.5.1.4.1.1.4.1",
            "ReferencedSOPInstanceUID": "1.3.12.2.1107.5.2.43.67014.2023071418250563321210554"}
],
        [
          {
            "ReferencedFrameNumber": 37,
            "ReferencedSOPClassUID": "1.2.840.10008.5.1.4.1.1.4.1",
            "ReferencedSOPInstanceUID": "1.3.12.2.1107.5.2.43.67014.2023071418250563321210554"}
],
        [
          {
            "ReferencedFrameNumber": 38,
            "ReferencedSOPClassUID": "1.2.840.10008.5.1.4.1.1.4.1",
            "ReferencedSOPInstanceUID": "1.3.12.2.1107.5.2.43.67014.2023071418250563321210554"}
],
        [
          {
            "ReferencedFrameNumber": 39,
            "ReferencedSOPClassUID": "1.2.840.10008.5.1.4.1.1.4.1",
            "ReferencedSOPInstanceUID": "1.3.12.2.1107.5.2.43.67014.2023071418250563321210554"}
],
        [
          {
            "ReferencedFrameNumber": 40,
            "ReferencedSOPClassUID": "1.2.840.10008.5.1.4.1.1.4.1",
            "ReferencedSOPInstanceUID": "1.3.12.2.1107.5.2.43.67014.2023071418250563321210554"}
],
        [
          {
            "ReferencedFrameNumber": 41,
            "ReferencedSOPClassUID": "1.2.840.10008.5.1.4.1.1.4.1",
            "ReferencedSOPInstanceUID": "1.3.12.2.1107.5.2.43.67014.2023071418250563321210554"}
],
        [
          {
            "ReferencedFrameNumber": 42,
            "ReferencedSOPClassUID": "1.2.840.10008.5.1.4.1.1.4.1",
            "ReferencedSOPInstanceUID": "1.3.12.2.1107.5.2.43.67014.2023071418250563321210554"}
],
        [
          {
            "ReferencedFrameNumber": 43,
            "ReferencedSOPClassUID": "1.2.840.10008.5.1.4.1.1.4.1",
            "ReferencedSOPInstanceUID": "1.3.12.2.1107.5.2.43.67014.2023071418250563321210554"}
],
        [
          {
            "ReferencedFrameNumber": 44,
            "ReferencedSOPClassUID": "1.2.840.10008.5.1.4.1.1.4.1",
            "ReferencedSOPInstanceUID": "1.3.12.2.1107.5.2.43.67014.2023071418250563321210554"}
],
        [
          {
            "ReferencedFrameNumber": 45,
            "ReferencedSOPClassUID": "1.2.840.10008.5.1.4.1.1.4.1",
            "ReferencedSOPInstanceUID": "1.3.12.2.1107.5.2.43.67014.2023071418250563321210554"}
],
        [
          {
            "ReferencedFrameNumber": 46,
            "ReferencedSOPClassUID": "1.2.840.10008.5.1.4.1.1.4.1",
            "ReferencedSOPInstanceUID": "1.3.12.2.1107.5.2.43.67014.2023071418250563321210554"}
],
        [
          {
            "ReferencedFrameNumber": 47,
            "ReferencedSOPClassUID": "1.2.840.10008.5.1.4.1.1.4.1",
            "ReferencedSOPInstanceUID": "1.3.12.2.1107.5.2.43.67014.2023071418250563321210554"}
],
        [
          {
            "ReferencedFrameNumber": 48,
            "ReferencedSOPClassUID": "1.2.840.10008.5.1.4.1.1.4.1",
            "ReferencedSOPInstanceUID": "1.3.12.2.1107.5.2.43.67014.2023071418250563321210554"}
],
        [
          {
            "ReferencedFrameNumber": 49,
            "ReferencedSOPClassUID": "1.2.840.10008.5.1.4.1.1.4.1",
            "ReferencedSOPInstanceUID": "1.3.12.2.1107.5.2.43.67014.2023071418250563321210554"}
],
        [
          {
            "ReferencedFrameNumber": 50,
            "ReferencedSOPClassUID": "1.2.840.10008.5.1.4.1.1.4.1",
            "ReferencedSOPInstanceUID": "1.3.12.2.1107.5.2.43.67014.2023071418250563321210554"}
],
        [
          {
            "ReferencedFrameNumber": 51,
            "ReferencedSOPClassUID": "1.2.840.10008.5.1.4.1.1.4.1",
            "ReferencedSOPInstanceUID": "1.3.12.2.1107.5.2.43.67014.2023071418250563321210554"}
],
        [
          {
            "ReferencedFrameNumber": 52,
            "ReferencedSOPClassUID": "1.2.840.10008.5.1.4.1.1.4.1",
            "ReferencedSOPInstanceUID": "1.3.12.2.1107.5.2.43.67014.2023071418250563321210554"}
],
        [
          {
            "ReferencedFrameNumber": 53,
            "ReferencedSOPClassUID": "1.2.840.10008.5.1.4.1.1.4.1",
            "ReferencedSOPInstanceUID": "1.3.12.2.1107.5.2.43.67014.2023071418250563321210554"}
],
        [
          {
            "ReferencedFrameNumber": 54,
            "ReferencedSOPClassUID": "1.2.840.10008.5.1.4.1.1.4.1",
            "ReferencedSOPInstanceUID": "1.3.12.2.1107.5.2.43.67014.2023071418250563321210554"}
],
        [
          {
            "ReferencedFrameNumber": 55,
            "ReferencedSOPClassUID": "1.2.840.10008.5.1.4.1.1.4.1",
            "ReferencedSOPInstanceUID": "1.3.12.2.1107.5.2.43.67014.2023071418250563321210554"}
],
        [
          {
            "ReferencedFrameNumber": 56,
            "ReferencedSOPClassUID": "1.2.840.10008.5.1.4.1.1.4.1",
            "ReferencedSOPInstanceUID": "1.3.12.2.1107.5.2.43.67014.2023071418250563321210554"}
],
        [
          {
            "ReferencedFrameNumber": 57,
            "ReferencedSOPClassUID": "1.2.840.10008.5.1.4.1.1.4.1",
            "ReferencedSOPInstanceUID": "1.3.12.2.1107.5.2.43.67014.2023071418250563321210554"}
],
        [
          {
            "ReferencedFrameNumber": 58,
            "ReferencedSOPClassUID": "1.2.840.10008.5.1.4.1.1.4.1",
            "ReferencedSOPInstanceUID": "1.3.12.2.1107.5.2.43.67014.2023071418250563321210554"}
],
        [
          {
            "ReferencedFrameNumber": 59,
            "ReferencedSOPClassUID": "1.2.840.10008.5.1.4.1.1.4.1",
            "ReferencedSOPInstanceUID": "1.3.12.2.1107.5.2.43.67014.2023071418250563321210554"}
],
        [
          {
            "ReferencedFrameNumber": 60,
            "ReferencedSOPClassUID": "1.2.840.10008.5.1.4.1.1.4.1",
            "ReferencedSOPInstanceUID": "1.3.12.2.1107.5.2.43.67014.2023071418250563321210554"}
],
        [
          {
            "ReferencedFrameNumber": 61,
            "ReferencedSOPClassUID": "1.2.840.10008.5.1.4.1.1.4.1",
            "ReferencedSOPInstanceUID": "1.3.12.2.1107.5.2.43.67014.2023071418250563321210554"}
],
        [
          {
            "ReferencedFrameNumber": 62,
            "ReferencedSOPClassUID": "1.2.840.10008.5.1.4.1.1.4.1",
            "ReferencedSOPInstanceUID": "1.3.12.2.1107.5.2.43.67014.2023071418250563321210554"}
],
        [
          {
            "ReferencedFrameNumber": 63,
            "ReferencedSOPClassUID": "1.2.840.10008.5.1.4.1.1.4.1",
            "ReferencedSOPInstanceUID": "1.3.12.2.1107.5.2.43.67014.2023071418250563321210554"}
],
        [
          {
            "ReferencedFrameNumber": 64,
            "ReferencedSOPClassUID": "1.2.840.10008.5.1.4.1.1.4.1",
            "ReferencedSOPInstanceUID": "1.3.12.2.1107.5.2.43.67014.2023071418250563321210554"}
],
        [
          {
            "ReferencedFrameNumber": 65,
            "ReferencedSOPClassUID": "1.2.840.10008.5.1.4.1.1.4.1",
            "ReferencedSOPInstanceUID": "1.3.12.2.1107.5.2.43.67014.2023071418250563321210554"}
],
        [
          {
            "ReferencedFrameNumber": 66,
            "ReferencedSOPClassUID": "1.2.840.10008.5.1.4.1.1.4.1",
            "ReferencedSOPInstanceUID": "1.3.12.2.1107.5.2.43.67014.2023071418250563321210554"}
],
        [
          {
            "ReferencedFrameNumber": 67,
            "ReferencedSOPClassUID": "1.2.840.10008.5.1.4.1.1.4.1",
            "ReferencedSOPInstanceUID": "1.3.12.2.1107.5.2.43.67014.2023071418250563321210554"}
],
        [
          {
            "ReferencedFrameNumber": 68,
            "ReferencedSOPClassUID": "1.2.840.10008.5.1.4.1.1.4.1",
            "ReferencedSOPInstanceUID": "1.3.12.2.1107.5.2.43.67014.2023071418250563321210554"}
],
        [
          {
            "ReferencedFrameNumber": 69,
            "ReferencedSOPClassUID": "1.2.840.10008.5.1.4.1.1.4.1",
            "ReferencedSOPInstanceUID": "1.3.12.2.1107.5.2.43.67014.2023071418250563321210554"}
],
        [
          {
            "ReferencedFrameNumber": 70,
            "ReferencedSOPClassUID": "1.2.840.10008.5.1.4.1.1.4.1",
            "ReferencedSOPInstanceUID": "1.3.12.2.1107.5.2.43.67014.2023071418250563321210554"}
],
        [
          {
            "ReferencedFrameNumber": 71,
            "ReferencedSOPClassUID": "1.2.840.10008.5.1.4.1.1.4.1",
            "ReferencedSOPInstanceUID": "1.3.12.2.1107.5.2.43.67014.2023071418250563321210554"}
],
        [
          {
            "ReferencedFrameNumber": 72,
            "ReferencedSOPClassUID": "1.2.840.10008.5.1.4.1.1.4.1",
            "ReferencedSOPInstanceUID": "1.3.12.2.1107.5.2.43.67014.2023071418250563321210554"}
],
        [
          {
            "ReferencedFrameNumber": 73,
            "ReferencedSOPClassUID": "1.2.840.10008.5.1.4.1.1.4.1",
            "ReferencedSOPInstanceUID": "1.3.12.2.1107.5.2.43.67014.2023071418250563321210554"}
],
        [
          {
            "ReferencedFrameNumber": 74,
            "ReferencedSOPClassUID": "1.2.840.10008.5.1.4.1.1.4.1",
            "ReferencedSOPInstanceUID": "1.3.12.2.1107.5.2.43.67014.2023071418250563321210554"}
],
        [
          {
            "ReferencedFrameNumber": 75,
            "ReferencedSOPClassUID": "1.2.840.10008.5.1.4.1.1.4.1",
            "ReferencedSOPInstanceUID": "1.3.12.2.1107.5.2.43.67014.2023071418250563321210554"}
],
        [
          {
            "ReferencedFrameNumber": 76,
            "ReferencedSOPClassUID": "1.2.840.10008.5.1.4.1.1.4.1",
            "ReferencedSOPInstanceUID": "1.3.12.2.1107.5.2.43.67014.2023071418250563321210554"}
],
        [
          {
            "ReferencedFrameNumber": 77,
            "ReferencedSOPClassUID": "1.2.840.10008.5.1.4.1.1.4.1",
            "ReferencedSOPInstanceUID": "1.3.12.2.1107.5.2.43.67014.2023071418250563321210554"}
],
        [
          {
            "ReferencedFrameNumber": 78,
            "ReferencedSOPClassUID": "1.2.840.10008.5.1.4.1.1.4.1",
            "ReferencedSOPInstanceUID": "1.3.12.2.1107.5.2.43.67014.2023071418250563321210554"}
],
        [
          {
            "ReferencedFrameNumber": 79,
            "ReferencedSOPClassUID": "1.2.840.10008.5.1.4.1.1.4.1",
            "ReferencedSOPInstanceUID": "1.3.12.2.1107.5.2.43.67014.2023071418250563321210554"}
],
        [
          {
            "ReferencedFrameNumber": 80,
            "ReferencedSOPClassUID": "1.2.840.10008.5.1.4.1.1.4.1",
            "ReferencedSOPInstanceUID": "1.3.12.2.1107.5.2.43.67014.2023071418250563321210554"}
],
        [
          {
            "ReferencedFrameNumber": 81,
            "ReferencedSOPClassUID": "1.2.840.10008.5.1.4.1.1.4.1",
            "ReferencedSOPInstanceUID": "1.3.12.2.1107.5.2.43.67014.2023071418250563321210554"}
],
        [
          {
            "ReferencedFrameNumber": 82,
            "ReferencedSOPClassUID": "1.2.840.10008.5.1.4.1.1.4.1",
            "ReferencedSOPInstanceUID": "1.3.12.2.1107.5.2.43.67014.2023071418250563321210554"}
],
        [
          {
            "ReferencedFrameNumber": 83,
            "ReferencedSOPClassUID": "1.2.840.10008.5.1.4.1.1.4.1",
            "ReferencedSOPInstanceUID": "1.3.12.2.1107.5.2.43.67014.2023071418250563321210554"}
],
        [
          {
            "ReferencedFrameNumber": 84,
            "ReferencedSOPClassUID": "1.2.840.10008.5.1.4.1.1.4.1",
            "ReferencedSOPInstanceUID": "1.3.12.2.1107.5.2.43.67014.2023071418250563321210554"}
],
        [
          {
