{
  "AcquisitionMatrixPE": 114,
  "AcquisitionNumber": 1,
  "AcquisitionTime": "18:18:15.177500",
  "BaseResolution": 114,
  "BodyPartExamined": "BRAIN",
  "CoilCombinationMethod": "Adaptive Combine",
  "CoilString": "HeadNeck_64",
  "ConversionSoftware": "dcm2niix",
  "ConversionSoftwareVersion": "v1.0.20220720",
  "DeviceSerialNumber": "67014",
  "DwellTime": 3.6e-06,
  "EchoNumber": 2,
  "EchoTime": 0.00691,
  "EchoTime1": 0.00445,
  "EchoTime2": 0.00691,
  "FlipAngle": 55,
  "HeudiconvVersion": "0.12.2",
  "ImageOrientationPatientDICOM": [0.997862, 0.00429019, 0.0652123, 0.0121917, 0.968106, -0.250245],
  "ImageType": [
    "ORIGINAL",
    "PRIMARY",
    "P",
    "DIS2D",
    "MFSPLIT",
    "PHASE"
],
  "ImageTypeText": [
    "ORIGINAL",
    "PRIMARY",
    "P",
    "NONE"
],
  "ImagingFrequency": 123.248,
  "InPlanePhaseEncodingDirectionDICOM": "COL",
  "InstitutionAddress": "Rue du Bugnon 21,Lausanne,District,CH,1011",
  "InstitutionName": "CHUV",
  "MRAcquisitionType": "2D",
  "MagneticFieldStrength": 3,
  "Manufacturer": "Siemens",
  "ManufacturersModelName": "MAGNETOM Prisma Fit",
  "MatrixCoilMode": "SENSE",
  "Modality": "MR",
  "NonlinearGradientCorrection": true,
  "PartialFourier": 1,
  "PatientPosition": "HFS",
  "PercentPhaseFOV": 100,
  "PercentSampling": 100,
  "PhaseEncodingDirection": "j",
  "PhaseEncodingSteps": 114,
  "PhaseResolution": 1,
  "PixelBandwidth": 1218,
  "ProcedureStepDescription": "RESEARCH Oscar",
  "ProtocolName": "fmap-phasediff__gre",
  "PulseSequenceDetails": "%SiemensSeq%\\gre_field_mapping",
  "ReceiveCoilActiveElements": "HC1-7",
  "ReceiveCoilName": "HeadNeck_64",
  "ReconMatrixPE": 114,
  "RepetitionTime": 0.324,
  "SAR": 0.118541,
  "ScanOptions": "PER",
  "ScanningSequence": "GR",
  "SequenceName": "*fm2d2r",
  "SequenceVariant": "SK",
  "SeriesDescription": "fmap-phasediff__gre",
  "SeriesNumber": 9,
  "ShimSetting": [8247, -5627, -6028, 671, -24, -213, 23, 16],
  "SliceThickness": 2,
  "SliceTiming": [74.8485, 0, 0, 0, 0, 0, 0, 0, 0, 0, 0, 0, 0, 0, 0, 0, 0, 0, 0, 0, 0, 0, 0, 0, 0, 0, 0, 0, 0, 0, 0, 0, 0, 0, 0, 0, 0, 0, 0, 0, 0, 0, 0, 0, 0, 0, 0, 0, 0, 0, 0, 0, 0, 0, 0, 0, 0, 0, 0, 0, 0, 0, 0, 0, 0, 0, 0, 0, 0, 0, 0, 0],
  "SoftwareVersions": "syngo MR XA30",
  "SpacingBetweenSlices": 2,
  "StationName": "LRG10884",
  "TxRefAmp": 248.2,
  "dcmmeta_affine": [
    [-1.9957239627838135, 0.02438339963555336, 0.12800000607967377, 113.07567596435547],
    [-0.008580380119383335, 1.9362119436264038, -0.5019999742507935, -65.89095306396484],
    [0.1304246038198471, 0.5004900097846985, 1.9320000410079956, -91.39936828613281],
    [0.0, 0.0, 0.0, 1.0]
],
  "dcmmeta_reorient_transform": [
    [0.0, -1.0, 0.0, 113.0],
    [1.0, 0.0, 0.0, 0.0],
    [0.0, 0.0, -1.0, 71.0],
    [0.0, 0.0, 0.0, 1.0]
],
  "dcmmeta_shape": [114, 114, 72],
  "dcmmeta_slice_dim": 2,
  "dcmmeta_version": 0.6,
  "global": {
    "const": {
      "AcquisitionMatrix": [114, 0, 0, 114],
      "AcquisitionNumber": 1,
      "AngioFlag": "N",
      "BeatRejectionFlag": "N",
      "BitsAllocated": 16,
      "BitsStored": 12,
      "BodyPartExamined": "BRAIN",
      "BurnedInAnnotation": "NO",
      "CardiacNumberOfImages": 1,
      "Columns": 114,
      "ConfidentialityCode": "N",
      "ContentQualification": "PRODUCT",
      "ContentTime": "181922",
      "EchoTime": 6.91,
      "EchoTrainLength": 0,
      "FlipAngle": 55.0,
      "HighBit": 11,
      "ImageOrientationPatient": [0.997862, 0.00429019, 0.0652123, 0.0121917, 0.968106, -0.250245],
      "ImageType": [
        "ORIGINAL",
        "PRIMARY",
        "P",
        "DIS2D",
        "MFSPLIT"
],
      "ImagedNucleus": "1H",
      "ImagingFrequency": 123.248139,
      "InPlanePhaseEncodingDirection": "COL",
      "InstanceCreationTime": "181815.177500",
      "LargestImagePixelValue": 4095,
      "LossyImageCompression": "00",
      "MRAcquisitionType": "2D",
      "MagneticFieldStrength": 3.0,
      "Manufacturer": "Siemens Healthineers",
      "ManufacturerModelName": "MAGNETOM Prisma Fit",
      "ModalitiesInStudy": [
        "MR",
        "SR"
],
      "Modality": "MR",
      "NumberOfAverages": 1.0,
      "NumberOfPhaseEncodingSteps": 114,
      "NumberOfStudyRelatedInstances": 19630,
      "NumberOfTemporalPositions": 1,
      "PercentPhaseFieldOfView": 100.0,
      "PercentSampling": 100.0,
      "PerformedProcedureStepStartTime": "173557.800000",
      "PhotometricInterpretation": "MONOCHROME2",
      "PixelBandwidth": 1218.0,
      "PixelRepresentation": 0,
      "PixelSpacing": [2.0, 2.0],
      "PresentationLUTShape": "IDENTITY",
      "ProtocolName": "fmap-phasediff__gre",
      "ReceiveCoilName": "HeadNeck_64",
      "RepetitionTime": 324.0,
      "RescaleIntercept": -4096.0,
      "RescaleSlope": 2.0,
      "Rows": 114,
      "SAR": 0.11854077904242,
      "SamplesPerPixel": 1,
      "ScanOptions": "PER",
      "ScanningSequence": "GR",
      "SequenceName": "*fm2d2r",
      "SequenceVariant": "SK",
      "SeriesDescription": "fmap-phasediff__gre",
      "SeriesNumber": 9,
      "SeriesTime": "181806",
      "SliceThickness": 2.0,
      "SmallestImagePixelValue": 0,
      "SoftwareVersions": "syngo MR XA30",
      "SpacingBetweenSlices": 2.0,
      "SpecificCharacterSet": "ISO_IR 100",
      "StudyID": "30c4fcde-29cb-48",
      "StudyTime": "173557",
      "TransmitCoilName": "Body"
    },
    "slices": {
      "AcquisitionTime": ["181815.177500", "181700.657500", "181815.187500", "181700.667500", "181815.197500", "181700.677500", "181815.205000", "181700.685000", "181815.215000", "181700.695000", "181815.222500", "181700.702500", "181815.232500", "181700.712500", "181815.242500", "181700.722500", "181815.250000", "181700.730000", "181815.260000", "181700.740000", "181815.267500", "181700.747500", "181815.277500", "181700.757500", "181815.287500", "181700.767500", "181815.295000", "181700.775000", "181815.305000", "181700.785000", "181815.312500", "181700.792500", "181815.322500", "181700.802500", "181815.332500", "181700.812500", "181815.340000", "181700.820000", "181815.350000", "181700.830000", "181815.357500", "181700.837500", "181815.367500", "181700.847500", "181815.377500", "181700.857500", "181815.385000", "181700.865000", "181815.395000", "181700.875000", "181815.402500", "181700.882500", "181815.412500", "181700.892500", "181815.422500", "181700.902500", "181815.430000", "181700.910000", "181815.440000", "181700.920000", "181815.447500", "181700.927500", "181815.457500", "181700.937500", "181815.467500", "181700.947500", "181815.475000", "181700.955000", "181815.485000", "181700.965000", "181815.492500", "181700.972500"],
      "ConversionSourceAttributesSequence": [
        [
          {
            "ReferencedFrameNumber": 1,
            "ReferencedSOPClassUID": "1.2.840.10008.5.1.4.1.1.4.1",
            "ReferencedSOPInstanceUID": "1.3.12.2.1107.5.2.43.67014.2023071418181717970007717"}
],
        [
          {
            "ReferencedFrameNumber": 2,
            "ReferencedSOPClassUID": "1.2.840.10008.5.1.4.1.1.4.1",
            "ReferencedSOPInstanceUID": "1.3.12.2.1107.5.2.43.67014.2023071418181717970007717"}
],
        [
          {
            "ReferencedFrameNumber": 3,
            "ReferencedSOPClassUID": "1.2.840.10008.5.1.4.1.1.4.1",
            "ReferencedSOPInstanceUID": "1.3.12.2.1107.5.2.43.67014.2023071418181717970007717"}
],
        [
          {
            "ReferencedFrameNumber": 4,
            "ReferencedSOPClassUID": "1.2.840.10008.5.1.4.1.1.4.1",
            "ReferencedSOPInstanceUID": "1.3.12.2.1107.5.2.43.67014.2023071418181717970007717"}
],
        [
          {
            "ReferencedFrameNumber": 5,
            "ReferencedSOPClassUID": "1.2.840.10008.5.1.4.1.1.4.1",
            "ReferencedSOPInstanceUID": "1.3.12.2.1107.5.2.43.67014.2023071418181717970007717"}
],
        [
          {
            "ReferencedFrameNumber": 6,
            "ReferencedSOPClassUID": "1.2.840.10008.5.1.4.1.1.4.1",
            "ReferencedSOPInstanceUID": "1.3.12.2.1107.5.2.43.67014.2023071418181717970007717"}
],
        [
          {
            "ReferencedFrameNumber": 7,
            "ReferencedSOPClassUID": "1.2.840.10008.5.1.4.1.1.4.1",
            "ReferencedSOPInstanceUID": "1.3.12.2.1107.5.2.43.67014.2023071418181717970007717"}
],
        [
          {
            "ReferencedFrameNumber": 8,
            "ReferencedSOPClassUID": "1.2.840.10008.5.1.4.1.1.4.1",
            "ReferencedSOPInstanceUID": "1.3.12.2.1107.5.2.43.67014.2023071418181717970007717"}
],
        [
          {
            "ReferencedFrameNumber": 9,
            "ReferencedSOPClassUID": "1.2.840.10008.5.1.4.1.1.4.1",
            "ReferencedSOPInstanceUID": "1.3.12.2.1107.5.2.43.67014.2023071418181717970007717"}
],
        [
          {
            "ReferencedFrameNumber": 10,
            "ReferencedSOPClassUID": "1.2.840.10008.5.1.4.1.1.4.1",
            "ReferencedSOPInstanceUID": "1.3.12.2.1107.5.2.43.67014.2023071418181717970007717"}
],
        [
          {
            "ReferencedFrameNumber": 11,
            "ReferencedSOPClassUID": "1.2.840.10008.5.1.4.1.1.4.1",
            "ReferencedSOPInstanceUID": "1.3.12.2.1107.5.2.43.67014.2023071418181717970007717"}
],
        [
          {
            "ReferencedFrameNumber": 12,
            "ReferencedSOPClassUID": "1.2.840.10008.5.1.4.1.1.4.1",
            "ReferencedSOPInstanceUID": "1.3.12.2.1107.5.2.43.67014.2023071418181717970007717"}
],
        [
          {
            "ReferencedFrameNumber": 13,
            "ReferencedSOPClassUID": "1.2.840.10008.5.1.4.1.1.4.1",
            "ReferencedSOPInstanceUID": "1.3.12.2.1107.5.2.43.67014.2023071418181717970007717"}
],
        [
          {
            "ReferencedFrameNumber": 14,
            "ReferencedSOPClassUID": "1.2.840.10008.5.1.4.1.1.4.1",
            "ReferencedSOPInstanceUID": "1.3.12.2.1107.5.2.43.67014.2023071418181717970007717"}
],
        [
          {
            "ReferencedFrameNumber": 15,
            "ReferencedSOPClassUID": "1.2.840.10008.5.1.4.1.1.4.1",
            "ReferencedSOPInstanceUID": "1.3.12.2.1107.5.2.43.67014.2023071418181717970007717"}
],
        [
          {
            "ReferencedFrameNumber": 16,
            "ReferencedSOPClassUID": "1.2.840.10008.5.1.4.1.1.4.1",
            "ReferencedSOPInstanceUID": "1.3.12.2.1107.5.2.43.67014.2023071418181717970007717"}
],
        [
          {
            "ReferencedFrameNumber": 17,
            "ReferencedSOPClassUID": "1.2.840.10008.5.1.4.1.1.4.1",
            "ReferencedSOPInstanceUID": "1.3.12.2.1107.5.2.43.67014.2023071418181717970007717"}
],
        [
          {
            "ReferencedFrameNumber": 18,
            "ReferencedSOPClassUID": "1.2.840.10008.5.1.4.1.1.4.1",
            "ReferencedSOPInstanceUID": "1.3.12.2.1107.5.2.43.67014.2023071418181717970007717"}
],
        [
          {
            "ReferencedFrameNumber": 19,
            "ReferencedSOPClassUID": "1.2.840.10008.5.1.4.1.1.4.1",
            "ReferencedSOPInstanceUID": "1.3.12.2.1107.5.2.43.67014.2023071418181717970007717"}
],
        [
          {
            "ReferencedFrameNumber": 20,
            "ReferencedSOPClassUID": "1.2.840.10008.5.1.4.1.1.4.1",
            "ReferencedSOPInstanceUID": "1.3.12.2.1107.5.2.43.67014.2023071418181717970007717"}
],
        [
          {
            "ReferencedFrameNumber": 21,
            "ReferencedSOPClassUID": "1.2.840.10008.5.1.4.1.1.4.1",
            "ReferencedSOPInstanceUID": "1.3.12.2.1107.5.2.43.67014.2023071418181717970007717"}
],
        [
          {
            "ReferencedFrameNumber": 22,
            "ReferencedSOPClassUID": "1.2.840.10008.5.1.4.1.1.4.1",
            "ReferencedSOPInstanceUID": "1.3.12.2.1107.5.2.43.67014.2023071418181717970007717"}
],
        [
          {
            "ReferencedFrameNumber": 23,
            "ReferencedSOPClassUID": "1.2.840.10008.5.1.4.1.1.4.1",
            "ReferencedSOPInstanceUID": "1.3.12.2.1107.5.2.43.67014.2023071418181717970007717"}
],
        [
          {
            "ReferencedFrameNumber": 24,
            "ReferencedSOPClassUID": "1.2.840.10008.5.1.4.1.1.4.1",
            "ReferencedSOPInstanceUID": "1.3.12.2.1107.5.2.43.67014.2023071418181717970007717"}
],
        [
          {
            "ReferencedFrameNumber": 25,
            "ReferencedSOPClassUID": "1.2.840.10008.5.1.4.1.1.4.1",
            "ReferencedSOPInstanceUID": "1.3.12.2.1107.5.2.43.67014.2023071418181717970007717"}
],
        [
          {
            "ReferencedFrameNumber": 26,
            "ReferencedSOPClassUID": "1.2.840.10008.5.1.4.1.1.4.1",
            "ReferencedSOPInstanceUID": "1.3.12.2.1107.5.2.43.67014.2023071418181717970007717"}
],
        [
          {
            "ReferencedFrameNumber": 27,
            "ReferencedSOPClassUID": "1.2.840.10008.5.1.4.1.1.4.1",
            "ReferencedSOPInstanceUID": "1.3.12.2.1107.5.2.43.67014.2023071418181717970007717"}
],
        [
          {
            "ReferencedFrameNumber": 28,
            "ReferencedSOPClassUID": "1.2.840.10008.5.1.4.1.1.4.1",
            "ReferencedSOPInstanceUID": "1.3.12.2.1107.5.2.43.67014.2023071418181717970007717"}
],
        [
          {
            "ReferencedFrameNumber": 29,
            "ReferencedSOPClassUID": "1.2.840.10008.5.1.4.1.1.4.1",
            "ReferencedSOPInstanceUID": "1.3.12.2.1107.5.2.43.67014.2023071418181717970007717"}
],
        [
          {
            "ReferencedFrameNumber": 30,
            "ReferencedSOPClassUID": "1.2.840.10008.5.1.4.1.1.4.1",
            "ReferencedSOPInstanceUID": "1.3.12.2.1107.5.2.43.67014.2023071418181717970007717"}
],
        [
          {
            "ReferencedFrameNumber": 31,
            "ReferencedSOPClassUID": "1.2.840.10008.5.1.4.1.1.4.1",
            "ReferencedSOPInstanceUID": "1.3.12.2.1107.5.2.43.67014.2023071418181717970007717"}
],
        [
          {
            "ReferencedFrameNumber": 32,
            "ReferencedSOPClassUID": "1.2.840.10008.5.1.4.1.1.4.1",
            "ReferencedSOPInstanceUID": "1.3.12.2.1107.5.2.43.67014.2023071418181717970007717"}
],
        [
          {
            "ReferencedFrameNumber": 33,
            "ReferencedSOPClassUID": "1.2.840.10008.5.1.4.1.1.4.1",
            "ReferencedSOPInstanceUID": "1.3.12.2.1107.5.2.43.67014.2023071418181717970007717"}
],
        [
          {
            "ReferencedFrameNumber": 34,
            "ReferencedSOPClassUID": "1.2.840.10008.5.1.4.1.1.4.1",
            "ReferencedSOPInstanceUID": "1.3.12.2.1107.5.2.43.67014.2023071418181717970007717"}
],
        [
          {
            "ReferencedFrameNumber": 35,
            "ReferencedSOPClassUID": "1.2.840.10008.5.1.4.1.1.4.1",
            "ReferencedSOPInstanceUID": "1.3.12.2.1107.5.2.43.67014.2023071418181717970007717"}
],
        [
          {
            "ReferencedFrameNumber": 36,
            "ReferencedSOPClassUID": "1.2.840.10008.5.1.4.1.1.4.1",
            "ReferencedSOPInstanceUID": "1.3.12.2.1107.5.2.43.67014.2023071418181717970007717"}
],
        [
          {
            "ReferencedFrameNumber": 37,
            "ReferencedSOPClassUID": "1.2.840.10008.5.1.4.1.1.4.1",
            "ReferencedSOPInstanceUID": "1.3.12.2.1107.5.2.43.67014.2023071418181717970007717"}
],
        [
          {
            "ReferencedFrameNumber": 38,
            "ReferencedSOPClassUID": "1.2.840.10008.5.1.4.1.1.4.1",
            "ReferencedSOPInstanceUID": "1.3.12.2.1107.5.2.43.67014.2023071418181717970007717"}
],
        [
          {
            "ReferencedFrameNumber": 39,
            "ReferencedSOPClassUID": "1.2.840.10008.5.1.4.1.1.4.1",
            "ReferencedSOPInstanceUID": "1.3.12.2.1107.5.2.43.67014.2023071418181717970007717"}
],
        [
          {
            "ReferencedFrameNumber": 40,
            "ReferencedSOPClassUID": "1.2.840.10008.5.1.4.1.1.4.1",
            "ReferencedSOPInstanceUID": "1.3.12.2.1107.5.2.43.67014.2023071418181717970007717"}
],
        [
          {
            "ReferencedFrameNumber": 41,
            "ReferencedSOPClassUID": "1.2.840.10008.5.1.4.1.1.4.1",
            "ReferencedSOPInstanceUID": "1.3.12.2.1107.5.2.43.67014.2023071418181717970007717"}
],
        [
          {
            "ReferencedFrameNumber": 42,
            "ReferencedSOPClassUID": "1.2.840.10008.5.1.4.1.1.4.1",
            "ReferencedSOPInstanceUID": "1.3.12.2.1107.5.2.43.67014.2023071418181717970007717"}
],
        [
          {
            "ReferencedFrameNumber": 43,
            "ReferencedSOPClassUID": "1.2.840.10008.5.1.4.1.1.4.1",
            "ReferencedSOPInstanceUID": "1.3.12.2.1107.5.2.43.67014.2023071418181717970007717"}
],
        [
          {
            "ReferencedFrameNumber": 44,
            "ReferencedSOPClassUID": "1.2.840.10008.5.1.4.1.1.4.1",
            "ReferencedSOPInstanceUID": "1.3.12.2.1107.5.2.43.67014.2023071418181717970007717"}
],
        [
          {
            "ReferencedFrameNumber": 45,
            "ReferencedSOPClassUID": "1.2.840.10008.5.1.4.1.1.4.1",
            "ReferencedSOPInstanceUID": "1.3.12.2.1107.5.2.43.67014.2023071418181717970007717"}
],
        [
          {
            "ReferencedFrameNumber": 46,
            "ReferencedSOPClassUID": "1.2.840.10008.5.1.4.1.1.4.1",
            "ReferencedSOPInstanceUID": "1.3.12.2.1107.5.2.43.67014.2023071418181717970007717"}
],
        [
          {
            "ReferencedFrameNumber": 47,
            "ReferencedSOPClassUID": "1.2.840.10008.5.1.4.1.1.4.1",
            "ReferencedSOPInstanceUID": "1.3.12.2.1107.5.2.43.67014.2023071418181717970007717"}
],
        [
          {
            "ReferencedFrameNumber": 48,
            "ReferencedSOPClassUID": "1.2.840.10008.5.1.4.1.1.4.1",
            "ReferencedSOPInstanceUID": "1.3.12.2.1107.5.2.43.67014.2023071418181717970007717"}
],
        [
          {
            "ReferencedFrameNumber": 49,
            "ReferencedSOPClassUID": "1.2.840.10008.5.1.4.1.1.4.1",
            "ReferencedSOPInstanceUID": "1.3.12.2.1107.5.2.43.67014.2023071418181717970007717"}
],
        [
          {
            "ReferencedFrameNumber": 50,
            "ReferencedSOPClassUID": "1.2.840.10008.5.1.4.1.1.4.1",
            "ReferencedSOPInstanceUID": "1.3.12.2.1107.5.2.43.67014.2023071418181717970007717"}
],
        [
          {
            "ReferencedFrameNumber": 51,
            "ReferencedSOPClassUID": "1.2.840.10008.5.1.4.1.1.4.1",
            "ReferencedSOPInstanceUID": "1.3.12.2.1107.5.2.43.67014.2023071418181717970007717"}
],
        [
          {
            "ReferencedFrameNumber": 52,
            "ReferencedSOPClassUID": "1.2.840.10008.5.1.4.1.1.4.1",
            "ReferencedSOPInstanceUID": "1.3.12.2.1107.5.2.43.67014.2023071418181717970007717"}
],
        [
          {
            "ReferencedFrameNumber": 53,
            "ReferencedSOPClassUID": "1.2.840.10008.5.1.4.1.1.4.1",
            "ReferencedSOPInstanceUID": "1.3.12.2.1107.5.2.43.67014.2023071418181717970007717"}
],
        [
          {
            "ReferencedFrameNumber": 54,
            "ReferencedSOPClassUID": "1.2.840.10008.5.1.4.1.1.4.1",
            "ReferencedSOPInstanceUID": "1.3.12.2.1107.5.2.43.67014.2023071418181717970007717"}
],
        [
          {
            "ReferencedFrameNumber": 55,
            "ReferencedSOPClassUID": "1.2.840.10008.5.1.4.1.1.4.1",
            "ReferencedSOPInstanceUID": "1.3.12.2.1107.5.2.43.67014.2023071418181717970007717"}
],
        [
          {
            "ReferencedFrameNumber": 56,
            "ReferencedSOPClassUID": "1.2.840.10008.5.1.4.1.1.4.1",
            "ReferencedSOPInstanceUID": "1.3.12.2.1107.5.2.43.67014.2023071418181717970007717"}
],
        [
          {
            "ReferencedFrameNumber": 57,
            "ReferencedSOPClassUID": "1.2.840.10008.5.1.4.1.1.4.1",
            "ReferencedSOPInstanceUID": "1.3.12.2.1107.5.2.43.67014.2023071418181717970007717"}
],
        [
          {
            "ReferencedFrameNumber": 58,
            "ReferencedSOPClassUID": "1.2.840.10008.5.1.4.1.1.4.1",
            "ReferencedSOPInstanceUID": "1.3.12.2.1107.5.2.43.67014.2023071418181717970007717"}
],
        [
          {
            "ReferencedFrameNumber": 59,
            "ReferencedSOPClassUID": "1.2.840.10008.5.1.4.1.1.4.1",
            "ReferencedSOPInstanceUID": "1.3.12.2.1107.5.2.43.67014.2023071418181717970007717"}
],
        [
          {
            "ReferencedFrameNumber": 60,
            "ReferencedSOPClassUID": "1.2.840.10008.5.1.4.1.1.4.1",
            "ReferencedSOPInstanceUID": "1.3.12.2.1107.5.2.43.67014.2023071418181717970007717"}
],
        [
          {
            "ReferencedFrameNumber": 61,
            "ReferencedSOPClassUID": "1.2.840.10008.5.1.4.1.1.4.1",
            "ReferencedSOPInstanceUID": "1.3.12.2.1107.5.2.43.67014.2023071418181717970007717"}
],
        [
          {
            "ReferencedFrameNumber": 62,
            "ReferencedSOPClassUID": "1.2.840.10008.5.1.4.1.1.4.1",
            "ReferencedSOPInstanceUID": "1.3.12.2.1107.5.2.43.67014.2023071418181717970007717"}
],
        [
          {
            "ReferencedFrameNumber": 63,
            "ReferencedSOPClassUID": "1.2.840.10008.5.1.4.1.1.4.1",
            "ReferencedSOPInstanceUID": "1.3.12.2.1107.5.2.43.67014.2023071418181717970007717"}
],
        [
          {
            "ReferencedFrameNumber": 64,
            "ReferencedSOPClassUID": "1.2.840.10008.5.1.4.1.1.4.1",
            "ReferencedSOPInstanceUID": "1.3.12.2.1107.5.2.43.67014.2023071418181717970007717"}
],
        [
          {
            "ReferencedFrameNumber": 65,
            "ReferencedSOPClassUID": "1.2.840.10008.5.1.4.1.1.4.1",
            "ReferencedSOPInstanceUID": "1.3.12.2.1107.5.2.43.67014.2023071418181717970007717"}
],
        [
          {
            "ReferencedFrameNumber": 66,
            "ReferencedSOPClassUID": "1.2.840.10008.5.1.4.1.1.4.1",
            "ReferencedSOPInstanceUID": "1.3.12.2.1107.5.2.43.67014.2023071418181717970007717"}
],
        [
          {
            "ReferencedFrameNumber": 67,
            "ReferencedSOPClassUID": "1.2.840.10008.5.1.4.1.1.4.1",
            "ReferencedSOPInstanceUID": "1.3.12.2.1107.5.2.43.67014.2023071418181717970007717"}
],
        [
          {
            "ReferencedFrameNumber": 68,
            "ReferencedSOPClassUID": "1.2.840.10008.5.1.4.1.1.4.1",
            "ReferencedSOPInstanceUID": "1.3.12.2.1107.5.2.43.67014.2023071418181717970007717"}
],
        [
          {
            "ReferencedFrameNumber": 69,
            "ReferencedSOPClassUID": "1.2.840.10008.5.1.4.1.1.4.1",
            "ReferencedSOPInstanceUID": "1.3.12.2.1107.5.2.43.67014.2023071418181717970007717"}
],
        [
          {
            "ReferencedFrameNumber": 70,
            "ReferencedSOPClassUID": "1.2.840.10008.5.1.4.1.1.4.1",
            "ReferencedSOPInstanceUID": "1.3.12.2.1107.5.2.43.67014.2023071418181717970007717"}
],
        [
          {
            "ReferencedFrameNumber": 71,
            "ReferencedSOPClassUID": "1.2.840.10008.5.1.4.1.1.4.1",
            "ReferencedSOPInstanceUID": "1.3.12.2.1107.5.2.43.67014.2023071418181717970007717"}
],
        [
          {
            "ReferencedFrameNumber": 72,
            "ReferencedSOPClassUID": "1.2.840.10008.5.1.4.1.1.4.1",
            "ReferencedSOPInstanceUID": "1.3.12.2.1107.5.2.43.67014.2023071418181717970007717"}
]
],
      "ImagePositionPatient": [
        [-115.802, -152.831, -34.8414],
        [-115.93, -152.33, -32.9095],
        [-116.059, -151.829, -30.9775],
        [-116.187, -151.328, -29.0455],
        [-116.316, -150.827, -27.1136],
        [-116.444, -150.326, -25.1816],
        [-116.572, -149.825, -23.2496],
        [-116.701, -149.324, -21.3177],
        [-116.829, -148.823, -19.3857],
        [-116.958, -148.322, -17.4537],
        [-117.086, -147.821, -15.5218],
        [-117.214, -147.32, -13.5898],
        [-117.343, -146.819, -11.6578],
        [-117.471, -146.318, -9.72585],
        [-117.6, -145.817, -7.79388],
        [-117.728, -145.316, -5.86191],
        [-117.856, -144.815, -3.92994],
        [-117.985, -144.314, -1.99797],
        [-118.113, -143.813, -0.066005],
        [-118.242, -143.312, 1.86596],
        [-118.37, -142.811, 3.79793],
        [-118.499, -142.31, 5.7299],
        [-118.627, -141.809, 7.66187],
        [-118.755, -141.308, 9.59383],
        [-118.884, -140.807, 11.5258],
        [-119.012, -140.306, 13.4578],
        [-119.141, -139.805, 15.3897],
        [-119.269, -139.304, 17.3217],
        [-119.397, -138.803, 19.2537],
        [-119.526, -138.302, 21.1856],
        [-119.654, -137.801, 23.1176],
        [-119.783, -137.3, 25.0496],
        [-119.911, -136.799, 26.9815],
        [-120.04, -136.298, 28.9135],
        [-120.168, -135.797, 30.8455],
        [-120.296, -135.296, 32.7775],
        [-120.425, -134.795, 34.7094],
        [-120.553, -134.294, 36.6414],
        [-120.682, -133.793, 38.5734],
        [-120.81, -133.292, 40.5053],
        [-120.938, -132.791, 42.4373],
        [-121.067, -132.29, 44.3693],
        [-121.195, -131.789, 46.3012],
        [-121.324, -131.288, 48.2332],
        [-121.452, -130.787, 50.1652],
        [-121.58, -130.286, 52.0971],
        [-121.709, -129.785, 54.0291],
        [-121.837, -129.284, 55.9611],
        [-121.966, -128.783, 57.893],
        [-122.094, -128.282, 59.825],
        [-122.223, -127.781, 61.757],
        [-122.351, -127.28, 63.6889],
        [-122.479, -126.779, 65.6209],
        [-122.608, -126.278, 67.5529],
        [-122.736, -125.777, 69.4848],
        [-122.865, -125.276, 71.4168],
        [-122.993, -124.775, 73.3488],
        [-123.121, -124.274, 75.2807],
        [-123.25, -123.773, 77.2127],
        [-123.378, -123.272, 79.1447],
        [-123.507, -122.771, 81.0766],
        [-123.635, -122.27, 83.0086],
        [-123.763, -121.769, 84.9406],
        [-123.892, -121.268, 86.8726],
        [-124.02, -120.767, 88.8045],
        [-124.149, -120.266, 90.7365],
        [-124.277, -119.765, 92.6685],
        [-124.406, -119.264, 94.6004],
        [-124.534, -118.763, 96.5324],
        [-124.662, -118.262, 98.4644],
        [-124.791, -117.761, 100.396],
        [-124.919, -117.259, 102.328]
],
      "InstanceNumber": [1, 2, 3, 4, 5, 6, 7, 8, 9, 10, 11, 12, 13, 14, 15, 16, 17, 18, 19, 20, 21, 22, 23, 24, 25, 26, 27, 28, 29, 30, 31, 32, 33, 34, 35, 36, 37, 38, 39, 40, 41, 42, 43, 44, 45, 46, 47, 48, 49, 50, 51, 52, 53, 54, 55, 56, 57, 58, 59, 60, 61, 62, 63, 64, 65, 66, 67, 68, 69, 70, 71, 72],
      "RelatedSeriesSequence": [
        [
          {
            "PurposeOfReferenceCodeSequence": [
              {
                "CodeMeaning": "Alternate SOP Class instance",
                "CodeValue": "121326",
                "CodingSchemeDesignator": "DCM"
              }
],
            "ReferencedImageSequence": [
              {
                "ReferencedFrameNumber": 1,
                "ReferencedSOPClassUID": "1.2.840.10008.5.1.4.1.1.4.1",
                "ReferencedSOPInstanceUID": "1.3.12.2.1107.5.2.43.67014.2023071418181717970007717"}
],
            "SeriesInstanceUID": "1.3.12.2.1107.5.2.43.67014.2023071418165765436707533.0.0.0",
            "StudyInstanceUID": "1.3.12.2.1107.5.2.43.67014.30000023071406484347300000015"}
],
        [
          {
            "PurposeOfReferenceCodeSequence": [
              {
                "CodeMeaning": "Alternate SOP Class instance",
                "CodeValue": "121326",
                "CodingSchemeDesignator": "DCM"
              }
],
            "ReferencedImageSequence": [
              {
                "ReferencedFrameNumber": 2,
                "ReferencedSOPClassUID": "1.2.840.10008.5.1.4.1.1.4.1",
                "ReferencedSOPInstanceUID": "1.3.12.2.1107.5.2.43.67014.2023071418181717970007717"}
],
            "SeriesInstanceUID": "1.3.12.2.1107.5.2.43.67014.2023071418165765436707533.0.0.0",
            "StudyInstanceUID": "1.3.12.2.1107.5.2.43.67014.30000023071406484347300000015"}
],
        [
          {
            "PurposeOfReferenceCodeSequence": [
              {
                "CodeMeaning": "Alternate SOP Class instance",
                "CodeValue": "121326",
                "CodingSchemeDesignator": "DCM"
              }
],
            "ReferencedImageSequence": [
              {
                "ReferencedFrameNumber": 3,
                "ReferencedSOPClassUID": "1.2.840.10008.5.1.4.1.1.4.1",
                "ReferencedSOPInstanceUID": "1.3.12.2.1107.5.2.43.67014.2023071418181717970007717"}
],
            "SeriesInstanceUID": "1.3.12.2.1107.5.2.43.67014.2023071418165765436707533.0.0.0",
            "StudyInstanceUID": "1.3.12.2.1107.5.2.43.67014.30000023071406484347300000015"}
],
        [
          {
            "PurposeOfReferenceCodeSequence": [
              {
                "CodeMeaning": "Alternate SOP Class instance",
                "CodeValue": "121326",
                "CodingSchemeDesignator": "DCM"
              }
],
            "ReferencedImageSequence": [
              {
                "ReferencedFrameNumber": 4,
                "ReferencedSOPClassUID": "1.2.840.10008.5.1.4.1.1.4.1",
                "ReferencedSOPInstanceUID": "1.3.12.2.1107.5.2.43.67014.2023071418181717970007717"}
],
            "SeriesInstanceUID": "1.3.12.2.1107.5.2.43.67014.2023071418165765436707533.0.0.0",
            "StudyInstanceUID": "1.3.12.2.1107.5.2.43.67014.30000023071406484347300000015"}
],
        [
          {
            "PurposeOfReferenceCodeSequence": [
              {
                "CodeMeaning": "Alternate SOP Class instance",
                "CodeValue": "121326",
                "CodingSchemeDesignator": "DCM"
              }
],
            "ReferencedImageSequence": [
              {
                "ReferencedFrameNumber": 5,
                "ReferencedSOPClassUID": "1.2.840.10008.5.1.4.1.1.4.1",
                "ReferencedSOPInstanceUID": "1.3.12.2.1107.5.2.43.67014.2023071418181717970007717"}
],
            "SeriesInstanceUID": "1.3.12.2.1107.5.2.43.67014.2023071418165765436707533.0.0.0",
