{
  "AcquisitionMatrixPE": 114,
  "AcquisitionNumber": 1,
  "AcquisitionTime": "17:23:10.170000",
  "BaseResolution": 114,
  "BodyPartExamined": "BRAIN",
  "CoilCombinationMethod": "Adaptive Combine",
  "CoilString": "HeadNeck_64",
  "ConversionSoftware": "dcm2niix",
  "ConversionSoftwareVersion": "v1.0.20220720",
  "DeviceSerialNumber": "67014",
  "DwellTime": 3.6e-06,
  "EchoNumber": 2,
  "EchoTime": 0.00691,
  "EchoTime1": 0.00445,
  "EchoTime2": 0.00691,
  "FlipAngle": 55,
  "HeudiconvVersion": "0.12.2",
  "ImageOrientationPatientDICOM": [0.998648, 0.0477365, -0.0205989, -0.0514631, 0.963939, -0.261101],
  "ImageType": [
    "ORIGINAL",
    "PRIMARY",
    "P",
    "DIS2D",
    "MFSPLIT",
    "PHASE"
],
  "ImageTypeText": [
    "ORIGINAL",
    "PRIMARY",
    "P",
    "NONE"
],
  "ImagingFrequency": 123.248,
  "InPlanePhaseEncodingDirectionDICOM": "COL",
  "InstitutionAddress": "Rue du Bugnon 21,Lausanne,District,CH,1011",
  "InstitutionName": "CHUV",
  "MRAcquisitionType": "2D",
  "MagneticFieldStrength": 3,
  "Manufacturer": "Siemens",
  "ManufacturersModelName": "MAGNETOM Prisma Fit",
  "MatrixCoilMode": "SENSE",
  "Modality": "MR",
  "NonlinearGradientCorrection": true,
  "PartialFourier": 1,
  "PatientPosition": "HFS",
  "PercentPhaseFOV": 100,
  "PercentSampling": 100,
  "PhaseEncodingDirection": "j",
  "PhaseEncodingSteps": 114,
  "PhaseResolution": 1,
  "PixelBandwidth": 1218,
  "ProcedureStepDescription": "RESEARCH Oscar",
  "ProtocolName": "fmap-phasediff__gre",
  "PulseSequenceDetails": "%SiemensSeq%\\gre_field_mapping",
  "ReceiveCoilActiveElements": "HC1-7;NC1",
  "ReceiveCoilName": "HeadNeck_64",
  "ReconMatrixPE": 114,
  "RepetitionTime": 0.324,
  "SAR": 0.125343,
  "ScanOptions": "PER",
  "ScanningSequence": "GR",
  "SequenceName": "*fm2d2r",
  "SequenceVariant": "SK",
  "SeriesDescription": "fmap-phasediff__gre",
  "SeriesNumber": 9,
  "ShimSetting": [8224, -5627, -6025, 692, -92, -222, 0, 47],
  "SliceThickness": 2,
  "SliceTiming": [74.846, 0, 0, 0, 0, 0, 0, 0, 0, 0, 0, 0, 0, 0, 0, 0, 0, 0, 0, 0, 0, 0, 0, 0, 0, 0, 0, 0, 0, 0, 0, 0, 0, 0, 0, 0, 0, 0, 0, 0, 0, 0, 0, 0, 0, 0, 0, 0, 0, 0, 0, 0, 0, 0, 0, 0, 0, 0, 0, 0, 0, 0, 0, 0, 0, 0, 0, 0, 0, 0, 0, 0],
  "SoftwareVersions": "syngo MR XA30",
  "SpacingBetweenSlices": 2,
  "StationName": "LRG10884",
  "TxRefAmp": 254.186,
  "dcmmeta_affine": [
    [-1.9972959756851196, -0.10292620211839676, -0.014999999664723873, 119.63365936279297],
    [-0.09547299891710281, 1.9278780221939087, -0.5230000019073486, -61.35121536254883],
    [-0.041197799146175385, 0.5222020149230957, 1.930999994277954, -87.27682495117188],
    [0.0, 0.0, 0.0, 1.0]
],
  "dcmmeta_reorient_transform": [
    [0.0, -1.0, 0.0, 113.0],
    [1.0, 0.0, 0.0, 0.0],
    [0.0, 0.0, -1.0, 71.0],
    [0.0, 0.0, 0.0, 1.0]
],
  "dcmmeta_shape": [114, 114, 72],
  "dcmmeta_slice_dim": 2,
  "dcmmeta_version": 0.6,
  "global": {
    "const": {
      "AcquisitionMatrix": [114, 0, 0, 114],
      "AcquisitionNumber": 1,
      "AngioFlag": "N",
      "BeatRejectionFlag": "N",
      "BitsAllocated": 16,
      "BitsStored": 12,
      "BodyPartExamined": "BRAIN",
      "BurnedInAnnotation": "NO",
      "CardiacNumberOfImages": 1,
      "Columns": 114,
      "ConfidentialityCode": "N",
      "ContentQualification": "PRODUCT",
      "ContentTime": "172428",
      "EchoTime": 6.91,
      "EchoTrainLength": 0,
      "FlipAngle": 55.0,
      "HighBit": 11,
      "ImageOrientationPatient": [0.998648, 0.0477365, -0.0205989, -0.0514631, 0.963939, -0.261101],
      "ImageType": [
        "ORIGINAL",
        "PRIMARY",
        "P",
        "DIS2D",
        "MFSPLIT"
],
      "ImagedNucleus": "1H",
      "ImagingFrequency": 123.248167,
      "InPlanePhaseEncodingDirection": "COL",
      "InstanceCreationTime": "172310.170000",
      "LargestImagePixelValue": 4095,
      "LossyImageCompression": "00",
      "MRAcquisitionType": "2D",
      "MagneticFieldStrength": 3.0,
      "Manufacturer": "Siemens Healthineers",
      "ManufacturerModelName": "MAGNETOM Prisma Fit",
      "ModalitiesInStudy": [
        "MR",
        "SR"
],
      "Modality": "MR",
      "NumberOfAverages": 1.0,
      "NumberOfPhaseEncodingSteps": 114,
      "NumberOfStudyRelatedInstances": 34240,
      "NumberOfTemporalPositions": 1,
      "PercentPhaseFieldOfView": 100.0,
      "PercentSampling": 100.0,
      "PerformedProcedureStepStartTime": "160505.800000",
      "PhotometricInterpretation": "MONOCHROME2",
      "PixelBandwidth": 1218.0,
      "PixelRepresentation": 0,
      "PixelSpacing": [2.0, 2.0],
      "PresentationLUTShape": "IDENTITY",
      "ProtocolName": "fmap-phasediff__gre",
      "ReceiveCoilName": "HeadNeck_64",
      "RepetitionTime": 324.0,
      "RescaleIntercept": -4096.0,
      "RescaleSlope": 2.0,
      "Rows": 114,
      "SAR": 0.1253426560449,
      "SamplesPerPixel": 1,
      "ScanOptions": "PER",
      "ScanningSequence": "GR",
      "SequenceName": "*fm2d2r",
      "SequenceVariant": "SK",
      "SeriesDescription": "fmap-phasediff__gre",
      "SeriesNumber": 9,
      "SeriesTime": "172312",
      "SliceThickness": 2.0,
      "SmallestImagePixelValue": 0,
      "SoftwareVersions": "syngo MR XA30",
      "SpacingBetweenSlices": 2.0,
      "SpecificCharacterSet": "ISO_IR 100",
      "StudyID": "810ddffb-855e-46",
      "StudyTime": "160505",
      "TransmitCoilName": "Body"
    },
    "slices": {
      "AcquisitionTime": ["172310.170000", "172155.650000", "172310.180000", "172155.660000", "172310.187500", "172155.667500", "172310.197500", "172155.677500", "172310.205000", "172155.685000", "172310.215000", "172155.695000", "172310.225000", "172155.705000", "172310.232500", "172155.712500", "172310.242500", "172155.722500", "172310.250000", "172155.730000", "172310.260000", "172155.740000", "172310.270000", "172155.750000", "172310.277500", "172155.757500", "172310.287500", "172155.767500", "172310.295000", "172155.775000", "172310.305000", "172155.785000", "172310.315000", "172155.795000", "172310.322500", "172155.802500", "172310.332500", "172155.812500", "172310.340000", "172155.820000", "172310.350000", "172155.830000", "172310.360000", "172155.840000", "172310.367500", "172155.847500", "172310.377500", "172155.857500", "172310.385000", "172155.865000", "172310.395000", "172155.875000", "172310.405000", "172155.885000", "172310.412500", "172155.892500", "172310.422500", "172155.902500", "172310.430000", "172155.910000", "172310.440000", "172155.920000", "172310.450000", "172155.930000", "172310.457500", "172155.937500", "172310.467500", "172155.947500", "172310.475000", "172155.955000", "172310.485000", "172155.965000"],
      "ConversionSourceAttributesSequence": [
        [
          {
            "ReferencedFrameNumber": 1,
            "ReferencedSOPClassUID": "1.2.840.10008.5.1.4.1.1.4.1",
            "ReferencedSOPInstanceUID": "1.3.12.2.1107.5.2.43.67014.2023062017231263215844855"}
],
        [
          {
            "ReferencedFrameNumber": 2,
            "ReferencedSOPClassUID": "1.2.840.10008.5.1.4.1.1.4.1",
            "ReferencedSOPInstanceUID": "1.3.12.2.1107.5.2.43.67014.2023062017231263215844855"}
],
        [
          {
            "ReferencedFrameNumber": 3,
            "ReferencedSOPClassUID": "1.2.840.10008.5.1.4.1.1.4.1",
            "ReferencedSOPInstanceUID": "1.3.12.2.1107.5.2.43.67014.2023062017231263215844855"}
],
        [
          {
            "ReferencedFrameNumber": 4,
            "ReferencedSOPClassUID": "1.2.840.10008.5.1.4.1.1.4.1",
            "ReferencedSOPInstanceUID": "1.3.12.2.1107.5.2.43.67014.2023062017231263215844855"}
],
        [
          {
            "ReferencedFrameNumber": 5,
            "ReferencedSOPClassUID": "1.2.840.10008.5.1.4.1.1.4.1",
            "ReferencedSOPInstanceUID": "1.3.12.2.1107.5.2.43.67014.2023062017231263215844855"}
],
        [
          {
            "ReferencedFrameNumber": 6,
            "ReferencedSOPClassUID": "1.2.840.10008.5.1.4.1.1.4.1",
            "ReferencedSOPInstanceUID": "1.3.12.2.1107.5.2.43.67014.2023062017231263215844855"}
],
        [
          {
            "ReferencedFrameNumber": 7,
            "ReferencedSOPClassUID": "1.2.840.10008.5.1.4.1.1.4.1",
            "ReferencedSOPInstanceUID": "1.3.12.2.1107.5.2.43.67014.2023062017231263215844855"}
],
        [
          {
            "ReferencedFrameNumber": 8,
            "ReferencedSOPClassUID": "1.2.840.10008.5.1.4.1.1.4.1",
            "ReferencedSOPInstanceUID": "1.3.12.2.1107.5.2.43.67014.2023062017231263215844855"}
],
        [
          {
            "ReferencedFrameNumber": 9,
            "ReferencedSOPClassUID": "1.2.840.10008.5.1.4.1.1.4.1",
            "ReferencedSOPInstanceUID": "1.3.12.2.1107.5.2.43.67014.2023062017231263215844855"}
],
        [
          {
            "ReferencedFrameNumber": 10,
            "ReferencedSOPClassUID": "1.2.840.10008.5.1.4.1.1.4.1",
            "ReferencedSOPInstanceUID": "1.3.12.2.1107.5.2.43.67014.2023062017231263215844855"}
],
        [
          {
            "ReferencedFrameNumber": 11,
            "ReferencedSOPClassUID": "1.2.840.10008.5.1.4.1.1.4.1",
            "ReferencedSOPInstanceUID": "1.3.12.2.1107.5.2.43.67014.2023062017231263215844855"}
],
        [
          {
            "ReferencedFrameNumber": 12,
            "ReferencedSOPClassUID": "1.2.840.10008.5.1.4.1.1.4.1",
            "ReferencedSOPInstanceUID": "1.3.12.2.1107.5.2.43.67014.2023062017231263215844855"}
],
        [
          {
            "ReferencedFrameNumber": 13,
            "ReferencedSOPClassUID": "1.2.840.10008.5.1.4.1.1.4.1",
            "ReferencedSOPInstanceUID": "1.3.12.2.1107.5.2.43.67014.2023062017231263215844855"}
],
        [
          {
            "ReferencedFrameNumber": 14,
            "ReferencedSOPClassUID": "1.2.840.10008.5.1.4.1.1.4.1",
            "ReferencedSOPInstanceUID": "1.3.12.2.1107.5.2.43.67014.2023062017231263215844855"}
],
        [
          {
            "ReferencedFrameNumber": 15,
            "ReferencedSOPClassUID": "1.2.840.10008.5.1.4.1.1.4.1",
            "ReferencedSOPInstanceUID": "1.3.12.2.1107.5.2.43.67014.2023062017231263215844855"}
],
        [
          {
            "ReferencedFrameNumber": 16,
            "ReferencedSOPClassUID": "1.2.840.10008.5.1.4.1.1.4.1",
            "ReferencedSOPInstanceUID": "1.3.12.2.1107.5.2.43.67014.2023062017231263215844855"}
],
        [
          {
            "ReferencedFrameNumber": 17,
            "ReferencedSOPClassUID": "1.2.840.10008.5.1.4.1.1.4.1",
            "ReferencedSOPInstanceUID": "1.3.12.2.1107.5.2.43.67014.2023062017231263215844855"}
],
        [
          {
            "ReferencedFrameNumber": 18,
            "ReferencedSOPClassUID": "1.2.840.10008.5.1.4.1.1.4.1",
            "ReferencedSOPInstanceUID": "1.3.12.2.1107.5.2.43.67014.2023062017231263215844855"}
],
        [
          {
            "ReferencedFrameNumber": 19,
            "ReferencedSOPClassUID": "1.2.840.10008.5.1.4.1.1.4.1",
            "ReferencedSOPInstanceUID": "1.3.12.2.1107.5.2.43.67014.2023062017231263215844855"}
],
        [
          {
            "ReferencedFrameNumber": 20,
            "ReferencedSOPClassUID": "1.2.840.10008.5.1.4.1.1.4.1",
            "ReferencedSOPInstanceUID": "1.3.12.2.1107.5.2.43.67014.2023062017231263215844855"}
],
        [
          {
            "ReferencedFrameNumber": 21,
            "ReferencedSOPClassUID": "1.2.840.10008.5.1.4.1.1.4.1",
            "ReferencedSOPInstanceUID": "1.3.12.2.1107.5.2.43.67014.2023062017231263215844855"}
],
        [
          {
            "ReferencedFrameNumber": 22,
            "ReferencedSOPClassUID": "1.2.840.10008.5.1.4.1.1.4.1",
            "ReferencedSOPInstanceUID": "1.3.12.2.1107.5.2.43.67014.2023062017231263215844855"}
],
        [
          {
            "ReferencedFrameNumber": 23,
            "ReferencedSOPClassUID": "1.2.840.10008.5.1.4.1.1.4.1",
            "ReferencedSOPInstanceUID": "1.3.12.2.1107.5.2.43.67014.2023062017231263215844855"}
],
        [
          {
            "ReferencedFrameNumber": 24,
            "ReferencedSOPClassUID": "1.2.840.10008.5.1.4.1.1.4.1",
            "ReferencedSOPInstanceUID": "1.3.12.2.1107.5.2.43.67014.2023062017231263215844855"}
],
        [
          {
            "ReferencedFrameNumber": 25,
            "ReferencedSOPClassUID": "1.2.840.10008.5.1.4.1.1.4.1",
            "ReferencedSOPInstanceUID": "1.3.12.2.1107.5.2.43.67014.2023062017231263215844855"}
],
        [
          {
            "ReferencedFrameNumber": 26,
            "ReferencedSOPClassUID": "1.2.840.10008.5.1.4.1.1.4.1",
            "ReferencedSOPInstanceUID": "1.3.12.2.1107.5.2.43.67014.2023062017231263215844855"}
],
        [
          {
            "ReferencedFrameNumber": 27,
            "ReferencedSOPClassUID": "1.2.840.10008.5.1.4.1.1.4.1",
            "ReferencedSOPInstanceUID": "1.3.12.2.1107.5.2.43.67014.2023062017231263215844855"}
],
        [
          {
            "ReferencedFrameNumber": 28,
            "ReferencedSOPClassUID": "1.2.840.10008.5.1.4.1.1.4.1",
            "ReferencedSOPInstanceUID": "1.3.12.2.1107.5.2.43.67014.2023062017231263215844855"}
],
        [
          {
            "ReferencedFrameNumber": 29,
            "ReferencedSOPClassUID": "1.2.840.10008.5.1.4.1.1.4.1",
            "ReferencedSOPInstanceUID": "1.3.12.2.1107.5.2.43.67014.2023062017231263215844855"}
],
        [
          {
            "ReferencedFrameNumber": 30,
            "ReferencedSOPClassUID": "1.2.840.10008.5.1.4.1.1.4.1",
            "ReferencedSOPInstanceUID": "1.3.12.2.1107.5.2.43.67014.2023062017231263215844855"}
],
        [
          {
            "ReferencedFrameNumber": 31,
            "ReferencedSOPClassUID": "1.2.840.10008.5.1.4.1.1.4.1",
            "ReferencedSOPInstanceUID": "1.3.12.2.1107.5.2.43.67014.2023062017231263215844855"}
],
        [
          {
            "ReferencedFrameNumber": 32,
            "ReferencedSOPClassUID": "1.2.840.10008.5.1.4.1.1.4.1",
            "ReferencedSOPInstanceUID": "1.3.12.2.1107.5.2.43.67014.2023062017231263215844855"}
],
        [
          {
            "ReferencedFrameNumber": 33,
            "ReferencedSOPClassUID": "1.2.840.10008.5.1.4.1.1.4.1",
            "ReferencedSOPInstanceUID": "1.3.12.2.1107.5.2.43.67014.2023062017231263215844855"}
],
        [
          {
            "ReferencedFrameNumber": 34,
            "ReferencedSOPClassUID": "1.2.840.10008.5.1.4.1.1.4.1",
            "ReferencedSOPInstanceUID": "1.3.12.2.1107.5.2.43.67014.2023062017231263215844855"}
],
        [
          {
            "ReferencedFrameNumber": 35,
            "ReferencedSOPClassUID": "1.2.840.10008.5.1.4.1.1.4.1",
            "ReferencedSOPInstanceUID": "1.3.12.2.1107.5.2.43.67014.2023062017231263215844855"}
],
        [
          {
            "ReferencedFrameNumber": 36,
            "ReferencedSOPClassUID": "1.2.840.10008.5.1.4.1.1.4.1",
            "ReferencedSOPInstanceUID": "1.3.12.2.1107.5.2.43.67014.2023062017231263215844855"}
],
        [
          {
            "ReferencedFrameNumber": 37,
            "ReferencedSOPClassUID": "1.2.840.10008.5.1.4.1.1.4.1",
            "ReferencedSOPInstanceUID": "1.3.12.2.1107.5.2.43.67014.2023062017231263215844855"}
],
        [
          {
            "ReferencedFrameNumber": 38,
            "ReferencedSOPClassUID": "1.2.840.10008.5.1.4.1.1.4.1",
            "ReferencedSOPInstanceUID": "1.3.12.2.1107.5.2.43.67014.2023062017231263215844855"}
],
        [
          {
            "ReferencedFrameNumber": 39,
            "ReferencedSOPClassUID": "1.2.840.10008.5.1.4.1.1.4.1",
            "ReferencedSOPInstanceUID": "1.3.12.2.1107.5.2.43.67014.2023062017231263215844855"}
],
        [
          {
            "ReferencedFrameNumber": 40,
            "ReferencedSOPClassUID": "1.2.840.10008.5.1.4.1.1.4.1",
            "ReferencedSOPInstanceUID": "1.3.12.2.1107.5.2.43.67014.2023062017231263215844855"}
],
        [
          {
            "ReferencedFrameNumber": 41,
            "ReferencedSOPClassUID": "1.2.840.10008.5.1.4.1.1.4.1",
            "ReferencedSOPInstanceUID": "1.3.12.2.1107.5.2.43.67014.2023062017231263215844855"}
],
        [
          {
            "ReferencedFrameNumber": 42,
            "ReferencedSOPClassUID": "1.2.840.10008.5.1.4.1.1.4.1",
            "ReferencedSOPInstanceUID": "1.3.12.2.1107.5.2.43.67014.2023062017231263215844855"}
],
        [
          {
            "ReferencedFrameNumber": 43,
            "ReferencedSOPClassUID": "1.2.840.10008.5.1.4.1.1.4.1",
            "ReferencedSOPInstanceUID": "1.3.12.2.1107.5.2.43.67014.2023062017231263215844855"}
],
        [
          {
            "ReferencedFrameNumber": 44,
            "ReferencedSOPClassUID": "1.2.840.10008.5.1.4.1.1.4.1",
            "ReferencedSOPInstanceUID": "1.3.12.2.1107.5.2.43.67014.2023062017231263215844855"}
],
        [
          {
            "ReferencedFrameNumber": 45,
            "ReferencedSOPClassUID": "1.2.840.10008.5.1.4.1.1.4.1",
            "ReferencedSOPInstanceUID": "1.3.12.2.1107.5.2.43.67014.2023062017231263215844855"}
],
        [
          {
            "ReferencedFrameNumber": 46,
            "ReferencedSOPClassUID": "1.2.840.10008.5.1.4.1.1.4.1",
            "ReferencedSOPInstanceUID": "1.3.12.2.1107.5.2.43.67014.2023062017231263215844855"}
],
        [
          {
            "ReferencedFrameNumber": 47,
            "ReferencedSOPClassUID": "1.2.840.10008.5.1.4.1.1.4.1",
            "ReferencedSOPInstanceUID": "1.3.12.2.1107.5.2.43.67014.2023062017231263215844855"}
],
        [
          {
            "ReferencedFrameNumber": 48,
            "ReferencedSOPClassUID": "1.2.840.10008.5.1.4.1.1.4.1",
            "ReferencedSOPInstanceUID": "1.3.12.2.1107.5.2.43.67014.2023062017231263215844855"}
],
        [
          {
            "ReferencedFrameNumber": 49,
            "ReferencedSOPClassUID": "1.2.840.10008.5.1.4.1.1.4.1",
            "ReferencedSOPInstanceUID": "1.3.12.2.1107.5.2.43.67014.2023062017231263215844855"}
],
        [
          {
            "ReferencedFrameNumber": 50,
            "ReferencedSOPClassUID": "1.2.840.10008.5.1.4.1.1.4.1",
            "ReferencedSOPInstanceUID": "1.3.12.2.1107.5.2.43.67014.2023062017231263215844855"}
],
        [
          {
            "ReferencedFrameNumber": 51,
            "ReferencedSOPClassUID": "1.2.840.10008.5.1.4.1.1.4.1",
            "ReferencedSOPInstanceUID": "1.3.12.2.1107.5.2.43.67014.2023062017231263215844855"}
],
        [
          {
            "ReferencedFrameNumber": 52,
            "ReferencedSOPClassUID": "1.2.840.10008.5.1.4.1.1.4.1",
            "ReferencedSOPInstanceUID": "1.3.12.2.1107.5.2.43.67014.2023062017231263215844855"}
],
        [
          {
            "ReferencedFrameNumber": 53,
            "ReferencedSOPClassUID": "1.2.840.10008.5.1.4.1.1.4.1",
            "ReferencedSOPInstanceUID": "1.3.12.2.1107.5.2.43.67014.2023062017231263215844855"}
],
        [
          {
            "ReferencedFrameNumber": 54,
            "ReferencedSOPClassUID": "1.2.840.10008.5.1.4.1.1.4.1",
            "ReferencedSOPInstanceUID": "1.3.12.2.1107.5.2.43.67014.2023062017231263215844855"}
],
        [
          {
            "ReferencedFrameNumber": 55,
            "ReferencedSOPClassUID": "1.2.840.10008.5.1.4.1.1.4.1",
            "ReferencedSOPInstanceUID": "1.3.12.2.1107.5.2.43.67014.2023062017231263215844855"}
],
        [
          {
            "ReferencedFrameNumber": 56,
            "ReferencedSOPClassUID": "1.2.840.10008.5.1.4.1.1.4.1",
            "ReferencedSOPInstanceUID": "1.3.12.2.1107.5.2.43.67014.2023062017231263215844855"}
],
        [
          {
            "ReferencedFrameNumber": 57,
            "ReferencedSOPClassUID": "1.2.840.10008.5.1.4.1.1.4.1",
            "ReferencedSOPInstanceUID": "1.3.12.2.1107.5.2.43.67014.2023062017231263215844855"}
],
        [
          {
            "ReferencedFrameNumber": 58,
            "ReferencedSOPClassUID": "1.2.840.10008.5.1.4.1.1.4.1",
            "ReferencedSOPInstanceUID": "1.3.12.2.1107.5.2.43.67014.2023062017231263215844855"}
],
        [
          {
            "ReferencedFrameNumber": 59,
            "ReferencedSOPClassUID": "1.2.840.10008.5.1.4.1.1.4.1",
            "ReferencedSOPInstanceUID": "1.3.12.2.1107.5.2.43.67014.2023062017231263215844855"}
],
        [
          {
            "ReferencedFrameNumber": 60,
            "ReferencedSOPClassUID": "1.2.840.10008.5.1.4.1.1.4.1",
            "ReferencedSOPInstanceUID": "1.3.12.2.1107.5.2.43.67014.2023062017231263215844855"}
],
        [
          {
            "ReferencedFrameNumber": 61,
            "ReferencedSOPClassUID": "1.2.840.10008.5.1.4.1.1.4.1",
            "ReferencedSOPInstanceUID": "1.3.12.2.1107.5.2.43.67014.2023062017231263215844855"}
],
        [
          {
            "ReferencedFrameNumber": 62,
            "ReferencedSOPClassUID": "1.2.840.10008.5.1.4.1.1.4.1",
            "ReferencedSOPInstanceUID": "1.3.12.2.1107.5.2.43.67014.2023062017231263215844855"}
],
        [
          {
            "ReferencedFrameNumber": 63,
            "ReferencedSOPClassUID": "1.2.840.10008.5.1.4.1.1.4.1",
            "ReferencedSOPInstanceUID": "1.3.12.2.1107.5.2.43.67014.2023062017231263215844855"}
],
        [
          {
            "ReferencedFrameNumber": 64,
            "ReferencedSOPClassUID": "1.2.840.10008.5.1.4.1.1.4.1",
            "ReferencedSOPInstanceUID": "1.3.12.2.1107.5.2.43.67014.2023062017231263215844855"}
],
        [
          {
            "ReferencedFrameNumber": 65,
            "ReferencedSOPClassUID": "1.2.840.10008.5.1.4.1.1.4.1",
            "ReferencedSOPInstanceUID": "1.3.12.2.1107.5.2.43.67014.2023062017231263215844855"}
],
        [
          {
            "ReferencedFrameNumber": 66,
            "ReferencedSOPClassUID": "1.2.840.10008.5.1.4.1.1.4.1",
            "ReferencedSOPInstanceUID": "1.3.12.2.1107.5.2.43.67014.2023062017231263215844855"}
],
        [
          {
            "ReferencedFrameNumber": 67,
            "ReferencedSOPClassUID": "1.2.840.10008.5.1.4.1.1.4.1",
            "ReferencedSOPInstanceUID": "1.3.12.2.1107.5.2.43.67014.2023062017231263215844855"}
],
        [
          {
            "ReferencedFrameNumber": 68,
            "ReferencedSOPClassUID": "1.2.840.10008.5.1.4.1.1.4.1",
            "ReferencedSOPInstanceUID": "1.3.12.2.1107.5.2.43.67014.2023062017231263215844855"}
],
        [
          {
            "ReferencedFrameNumber": 69,
            "ReferencedSOPClassUID": "1.2.840.10008.5.1.4.1.1.4.1",
            "ReferencedSOPInstanceUID": "1.3.12.2.1107.5.2.43.67014.2023062017231263215844855"}
],
        [
          {
            "ReferencedFrameNumber": 70,
            "ReferencedSOPClassUID": "1.2.840.10008.5.1.4.1.1.4.1",
            "ReferencedSOPInstanceUID": "1.3.12.2.1107.5.2.43.67014.2023062017231263215844855"}
],
        [
          {
            "ReferencedFrameNumber": 71,
            "ReferencedSOPClassUID": "1.2.840.10008.5.1.4.1.1.4.1",
            "ReferencedSOPInstanceUID": "1.3.12.2.1107.5.2.43.67014.2023062017231263215844855"}
],
        [
          {
            "ReferencedFrameNumber": 72,
            "ReferencedSOPClassUID": "1.2.840.10008.5.1.4.1.1.4.1",
            "ReferencedSOPInstanceUID": "1.3.12.2.1107.5.2.43.67014.2023062017231263215844855"}
]
],
      "ImagePositionPatient": [
        [-107.988, -156.543, -28.2104],
        [-107.973, -156.019, -26.2803],
        [-107.958, -155.495, -24.3501],
        [-107.943, -154.972, -22.4199],
        [-107.928, -154.448, -20.4897],
        [-107.914, -153.924, -18.5595],
        [-107.899, -153.401, -16.6293],
        [-107.884, -152.877, -14.6992],
        [-107.869, -152.354, -12.769],
        [-107.855, -151.83, -10.8388],
        [-107.84, -151.306, -8.9086],
        [-107.825, -150.783, -6.97842],
        [-107.81, -150.259, -5.04824],
        [-107.795, -149.736, -3.11805],
        [-107.781, -149.212, -1.18787],
        [-107.766, -148.688, 0.742316],
        [-107.751, -148.165, 2.6725],
        [-107.736, -147.641, 4.60268],
        [-107.721, -147.117, 6.53287],
        [-107.707, -146.594, 8.46305],
        [-107.692, -146.07, 10.3932],
        [-107.677, -145.547, 12.3234],
        [-107.662, -145.023, 14.2536],
        [-107.648, -144.499, 16.1838],
        [-107.633, -143.976, 18.114],
        [-107.618, -143.452, 20.0442],
        [-107.603, -142.929, 21.9743],
        [-107.588, -142.405, 23.9045],
        [-107.574, -141.881, 25.8347],
        [-107.559, -141.358, 27.7649],
        [-107.544, -140.834, 29.6951],
        [-107.529, -140.31, 31.6253],
        [-107.514, -139.787, 33.5554],
        [-107.5, -139.263, 35.4856],
        [-107.485, -138.74, 37.4158],
        [-107.47, -138.216, 39.346],
        [-107.455, -137.692, 41.2762],
        [-107.441, -137.169, 43.2064],
        [-107.426, -136.645, 45.1365],
        [-107.411, -136.122, 47.0667],
        [-107.396, -135.598, 48.9969],
        [-107.381, -135.074, 50.9271],
        [-107.367, -134.551, 52.8573],
        [-107.352, -134.027, 54.7875],
        [-107.337, -133.503, 56.7177],
        [-107.322, -132.98, 58.6478],
        [-107.308, -132.456, 60.578],
        [-107.293, -131.933, 62.5082],
        [-107.278, -131.409, 64.4384],
        [-107.263, -130.885, 66.3686],
        [-107.248, -130.362, 68.2988],
        [-107.234, -129.838, 70.2289],
        [-107.219, -129.315, 72.1591],
        [-107.204, -128.791, 74.0893],
        [-107.189, -128.267, 76.0195],
        [-107.174, -127.744, 77.9497],
        [-107.16, -127.22, 79.8799],
        [-107.145, -126.696, 81.81],
        [-107.13, -126.173, 83.7402],
        [-107.115, -125.649, 85.6704],
        [-107.101, -125.126, 87.6006],
        [-107.086, -124.602, 89.5308],
        [-107.071, -124.078, 91.461],
        [-107.056, -123.555, 93.3911],
        [-107.041, -123.031, 95.3213],
        [-107.027, -122.508, 97.2515],
        [-107.012, -121.984, 99.1817],
        [-106.997, -121.46, 101.112],
        [-106.982, -120.937, 103.042],
        [-106.967, -120.413, 104.972],
        [-106.953, -119.889, 106.902],
        [-106.938, -119.366, 108.833]
],
      "InstanceNumber": [1, 2, 3, 4, 5, 6, 7, 8, 9, 10, 11, 12, 13, 14, 15, 16, 17, 18, 19, 20, 21, 22, 23, 24, 25, 26, 27, 28, 29, 30, 31, 32, 33, 34, 35, 36, 37, 38, 39, 40, 41, 42, 43, 44, 45, 46, 47, 48, 49, 50, 51, 52, 53, 54, 55, 56, 57, 58, 59, 60, 61, 62, 63, 64, 65, 66, 67, 68, 69, 70, 71, 72],
      "RelatedSeriesSequence": [
        [
          {
            "PurposeOfReferenceCodeSequence": [
              {
                "CodeMeaning": "Alternate SOP Class instance",
                "CodeValue": "121326",
                "CodingSchemeDesignator": "DCM"
              }
],
            "ReferencedImageSequence": [
              {
                "ReferencedFrameNumber": 1,
                "ReferencedSOPClassUID": "1.2.840.10008.5.1.4.1.1.4.1",
                "ReferencedSOPInstanceUID": "1.3.12.2.1107.5.2.43.67014.2023062017231263215844855"}
],
            "SeriesInstanceUID": "1.3.12.2.1107.5.2.43.67014.2023062017215302388444671.0.0.0",
            "StudyInstanceUID": "1.3.12.2.1107.5.2.43.67014.30000023062006264161500000014"}
],
        [
          {
            "PurposeOfReferenceCodeSequence": [
              {
                "CodeMeaning": "Alternate SOP Class instance",
                "CodeValue": "121326",
                "CodingSchemeDesignator": "DCM"
              }
],
            "ReferencedImageSequence": [
              {
                "ReferencedFrameNumber": 2,
                "ReferencedSOPClassUID": "1.2.840.10008.5.1.4.1.1.4.1",
                "ReferencedSOPInstanceUID": "1.3.12.2.1107.5.2.43.67014.2023062017231263215844855"}
],
            "SeriesInstanceUID": "1.3.12.2.1107.5.2.43.67014.2023062017215302388444671.0.0.0",
            "StudyInstanceUID": "1.3.12.2.1107.5.2.43.67014.30000023062006264161500000014"}
],
        [
          {
            "PurposeOfReferenceCodeSequence": [
              {
                "CodeMeaning": "Alternate SOP Class instance",
                "CodeValue": "121326",
                "CodingSchemeDesignator": "DCM"
              }
],
            "ReferencedImageSequence": [
              {
                "ReferencedFrameNumber": 3,
                "ReferencedSOPClassUID": "1.2.840.10008.5.1.4.1.1.4.1",
                "ReferencedSOPInstanceUID": "1.3.12.2.1107.5.2.43.67014.2023062017231263215844855"}
],
            "SeriesInstanceUID": "1.3.12.2.1107.5.2.43.67014.2023062017215302388444671.0.0.0",
            "StudyInstanceUID": "1.3.12.2.1107.5.2.43.67014.30000023062006264161500000014"}
],
        [
          {
            "PurposeOfReferenceCodeSequence": [
              {
                "CodeMeaning": "Alternate SOP Class instance",
                "CodeValue": "121326",
                "CodingSchemeDesignator": "DCM"
              }
],
            "ReferencedImageSequence": [
              {
                "ReferencedFrameNumber": 4,
                "ReferencedSOPClassUID": "1.2.840.10008.5.1.4.1.1.4.1",
                "ReferencedSOPInstanceUID": "1.3.12.2.1107.5.2.43.67014.2023062017231263215844855"}
],
            "SeriesInstanceUID": "1.3.12.2.1107.5.2.43.67014.2023062017215302388444671.0.0.0",
            "StudyInstanceUID": "1.3.12.2.1107.5.2.43.67014.30000023062006264161500000014"}
],
        [
          {
            "PurposeOfReferenceCodeSequence": [
              {
                "CodeMeaning": "Alternate SOP Class instance",
                "CodeValue": "121326",
                "CodingSchemeDesignator": "DCM"
              }
],
            "ReferencedImageSequence": [
              {
                "ReferencedFrameNumber": 5,
                "ReferencedSOPClassUID": "1.2.840.10008.5.1.4.1.1.4.1",
                "ReferencedSOPInstanceUID": "1.3.12.2.1107.5.2.43.67014.2023062017231263215844855"}
],
            "SeriesInstanceUID": "1.3.12.2.1107.5.2.43.67014.2023062017215302388444671.0.0.0",
